#Navio B MarAd
#Manobra de Curva Giro
#
#Velocidade Sistema Solidário 
#
#temp           u           v           w    dot roll   dot pitch     dot yaw 
 0.00        4.11000e+00        0.00000e+00        0.00000e+00        0.00000e+00        0.00000e+00        0.00000e+00 
 0.70        4.11000e+00        8.64984e-05        0.00000e+00        0.00000e+00        0.00000e+00        -1.86400e-06 
 1.40        4.11000e+00        1.74827e-04        0.00000e+00        0.00000e+00        0.00000e+00        -3.71374e-06 
 2.10        4.10816e+00        -2.75242e-03        0.00000e+00        0.00000e+00        0.00000e+00        5.89500e-05 
 2.80        4.10632e+00        -5.73931e-03        0.00000e+00        0.00000e+00        0.00000e+00        1.21102e-04 
 3.50        4.10448e+00        -8.78475e-03        0.00000e+00        0.00000e+00        0.00000e+00        1.82750e-04 
 4.20        4.10265e+00        -1.18877e-02        0.00000e+00        0.00000e+00        0.00000e+00        2.43903e-04 
 4.90        4.10081e+00        -1.50470e-02        0.00000e+00        0.00000e+00        0.00000e+00        3.04570e-04 
 5.60        4.09898e+00        -1.82616e-02        0.00000e+00        0.00000e+00        0.00000e+00        3.64756e-04 
 6.30        4.09714e+00        -2.15305e-02        0.00000e+00        0.00000e+00        0.00000e+00        4.24471e-04 
 7.00        4.09531e+00        -2.48527e-02        0.00000e+00        0.00000e+00        0.00000e+00        4.83722e-04 
 7.70        4.09347e+00        -2.82271e-02        0.00000e+00        0.00000e+00        0.00000e+00        5.42515e-04 
 8.40        4.09164e+00        -3.16527e-02        0.00000e+00        0.00000e+00        0.00000e+00        6.00858e-04 
 9.10        4.08980e+00        -3.51284e-02        0.00000e+00        0.00000e+00        0.00000e+00        6.58756e-04 
 9.80        4.08796e+00        -3.86533e-02        0.00000e+00        0.00000e+00        0.00000e+00        7.16217e-04 
 10.50        4.08612e+00        -4.22264e-02        0.00000e+00        0.00000e+00        0.00000e+00        7.73247e-04 
 11.20        4.08427e+00        -4.58467e-02        0.00000e+00        0.00000e+00        0.00000e+00        8.29852e-04 
 11.90        4.08242e+00        -4.95131e-02        0.00000e+00        0.00000e+00        0.00000e+00        8.86038e-04 
 12.60        4.08057e+00        -5.32248e-02        0.00000e+00        0.00000e+00        0.00000e+00        9.41809e-04 
 13.30        4.07871e+00        -5.69808e-02        0.00000e+00        0.00000e+00        0.00000e+00        9.97173e-04 
 14.00        4.07684e+00        -6.07800e-02        0.00000e+00        0.00000e+00        0.00000e+00        1.05213e-03 
 14.70        4.07498e+00        -6.46217e-02        0.00000e+00        0.00000e+00        0.00000e+00        1.10670e-03 
 15.40        4.07310e+00        -6.85047e-02        0.00000e+00        0.00000e+00        0.00000e+00        1.16087e-03 
 16.10        4.07122e+00        -7.24282e-02        0.00000e+00        0.00000e+00        0.00000e+00        1.21465e-03 
 16.80        4.06933e+00        -7.63913e-02        0.00000e+00        0.00000e+00        0.00000e+00        1.26804e-03 
 17.50        4.06744e+00        -8.03930e-02        0.00000e+00        0.00000e+00        0.00000e+00        1.32106e-03 
 18.20        4.06553e+00        -8.44324e-02        0.00000e+00        0.00000e+00        0.00000e+00        1.37371e-03 
 18.90        4.06362e+00        -8.85087e-02        0.00000e+00        0.00000e+00        0.00000e+00        1.42598e-03 
 19.60        4.06170e+00        -9.26208e-02        0.00000e+00        0.00000e+00        0.00000e+00        1.47788e-03 
 20.30        4.05977e+00        -9.67679e-02        0.00000e+00        0.00000e+00        0.00000e+00        1.52942e-03 
 21.00        4.05783e+00        -1.00949e-01        0.00000e+00        0.00000e+00        0.00000e+00        1.58061e-03 
 21.70        4.05589e+00        -1.05164e-01        0.00000e+00        0.00000e+00        0.00000e+00        1.63143e-03 
 22.40        4.05393e+00        -1.09411e-01        0.00000e+00        0.00000e+00        0.00000e+00        1.68191e-03 
 23.10        4.05196e+00        -1.13689e-01        0.00000e+00        0.00000e+00        0.00000e+00        1.73203e-03 
 23.80        4.04997e+00        -1.17998e-01        0.00000e+00        0.00000e+00        0.00000e+00        1.78181e-03 
 24.50        4.04798e+00        -1.22336e-01        0.00000e+00        0.00000e+00        0.00000e+00        1.83124e-03 
 25.20        4.04597e+00        -1.26704e-01        0.00000e+00        0.00000e+00        0.00000e+00        1.88034e-03 
 25.90        4.04395e+00        -1.31100e-01        0.00000e+00        0.00000e+00        0.00000e+00        1.92909e-03 
 26.60        4.04192e+00        -1.35523e-01        0.00000e+00        0.00000e+00        0.00000e+00        1.97751e-03 
 27.30        4.03987e+00        -1.39972e-01        0.00000e+00        0.00000e+00        0.00000e+00        2.02560e-03 
 28.00        4.03781e+00        -1.44447e-01        0.00000e+00        0.00000e+00        0.00000e+00        2.07336e-03 
 28.70        4.03574e+00        -1.48946e-01        0.00000e+00        0.00000e+00        0.00000e+00        2.12079e-03 
 29.40        4.03365e+00        -1.53469e-01        0.00000e+00        0.00000e+00        0.00000e+00        2.16789e-03 
 30.10        4.03154e+00        -1.58016e-01        0.00000e+00        0.00000e+00        0.00000e+00        2.21467e-03 
 30.80        4.02942e+00        -1.62584e-01        0.00000e+00        0.00000e+00        0.00000e+00        2.26113e-03 
 31.50        4.02728e+00        -1.67174e-01        0.00000e+00        0.00000e+00        0.00000e+00        2.30726e-03 
 32.20        4.02512e+00        -1.71785e-01        0.00000e+00        0.00000e+00        0.00000e+00        2.35308e-03 
 32.90        4.02295e+00        -1.76416e-01        0.00000e+00        0.00000e+00        0.00000e+00        2.39859e-03 
 33.60        4.02076e+00        -1.81065e-01        0.00000e+00        0.00000e+00        0.00000e+00        2.44377e-03 
 34.30        4.01855e+00        -1.85733e-01        0.00000e+00        0.00000e+00        0.00000e+00        2.48865e-03 
 35.00        4.01632e+00        -1.90418e-01        0.00000e+00        0.00000e+00        0.00000e+00        2.53321e-03 
 35.70        4.01408e+00        -1.95121e-01        0.00000e+00        0.00000e+00        0.00000e+00        2.57746e-03 
 36.40        4.01181e+00        -1.99839e-01        0.00000e+00        0.00000e+00        0.00000e+00        2.62141e-03 
 37.10        4.00953e+00        -2.04572e-01        0.00000e+00        0.00000e+00        0.00000e+00        2.66504e-03 
 37.80        4.00722e+00        -2.09319e-01        0.00000e+00        0.00000e+00        0.00000e+00        2.70837e-03 
 38.50        4.00490e+00        -2.14080e-01        0.00000e+00        0.00000e+00        0.00000e+00        2.75139e-03 
 39.20        4.00255e+00        -2.18854e-01        0.00000e+00        0.00000e+00        0.00000e+00        2.79411e-03 
 39.90        4.00018e+00        -2.23641e-01        0.00000e+00        0.00000e+00        0.00000e+00        2.83652e-03 
 40.60        3.99779e+00        -2.28438e-01        0.00000e+00        0.00000e+00        0.00000e+00        2.87864e-03 
 41.30        3.99538e+00        -2.33247e-01        0.00000e+00        0.00000e+00        0.00000e+00        2.92044e-03 
 42.00        3.99295e+00        -2.38065e-01        0.00000e+00        0.00000e+00        0.00000e+00        2.96195e-03 
 42.70        3.99049e+00        -2.42892e-01        0.00000e+00        0.00000e+00        0.00000e+00        3.00316e-03 
 43.40        3.98801e+00        -2.47728e-01        0.00000e+00        0.00000e+00        0.00000e+00        3.04407e-03 
 44.10        3.98551e+00        -2.52572e-01        0.00000e+00        0.00000e+00        0.00000e+00        3.08468e-03 
 44.80        3.98298e+00        -2.57423e-01        0.00000e+00        0.00000e+00        0.00000e+00        3.12499e-03 
 45.50        3.98043e+00        -2.62280e-01        0.00000e+00        0.00000e+00        0.00000e+00        3.16500e-03 
 46.20        3.97785e+00        -2.67143e-01        0.00000e+00        0.00000e+00        0.00000e+00        3.20471e-03 
 46.90        3.97525e+00        -2.72011e-01        0.00000e+00        0.00000e+00        0.00000e+00        3.24413e-03 
 47.60        3.97263e+00        -2.76883e-01        0.00000e+00        0.00000e+00        0.00000e+00        3.28325e-03 
 48.30        3.96998e+00        -2.81759e-01        0.00000e+00        0.00000e+00        0.00000e+00        3.32207e-03 
 49.00        3.96730e+00        -2.86638e-01        0.00000e+00        0.00000e+00        0.00000e+00        3.36060e-03 
 49.70        3.96460e+00        -2.91519e-01        0.00000e+00        0.00000e+00        0.00000e+00        3.39883e-03 
 50.40        3.96187e+00        -2.96401e-01        0.00000e+00        0.00000e+00        0.00000e+00        3.43677e-03 
 51.10        3.95912e+00        -3.01285e-01        0.00000e+00        0.00000e+00        0.00000e+00        3.47441e-03 
 51.80        3.95634e+00        -3.06169e-01        0.00000e+00        0.00000e+00        0.00000e+00        3.51176e-03 
 52.50        3.95353e+00        -3.11052e-01        0.00000e+00        0.00000e+00        0.00000e+00        3.54881e-03 
 53.20        3.95070e+00        -3.15935e-01        0.00000e+00        0.00000e+00        0.00000e+00        3.58557e-03 
 53.90        3.94784e+00        -3.20815e-01        0.00000e+00        0.00000e+00        0.00000e+00        3.62203e-03 
 54.60        3.94495e+00        -3.25694e-01        0.00000e+00        0.00000e+00        0.00000e+00        3.65820e-03 
 55.30        3.94203e+00        -3.30570e-01        0.00000e+00        0.00000e+00        0.00000e+00        3.69408e-03 
 56.00        3.93908e+00        -3.35442e-01        0.00000e+00        0.00000e+00        0.00000e+00        3.72966e-03 
 56.70        3.93611e+00        -3.40310e-01        0.00000e+00        0.00000e+00        0.00000e+00        3.76495e-03 
 57.40        3.93311e+00        -3.45174e-01        0.00000e+00        0.00000e+00        0.00000e+00        3.79995e-03 
 58.10        3.93008e+00        -3.50032e-01        0.00000e+00        0.00000e+00        0.00000e+00        3.83465e-03 
 58.80        3.92702e+00        -3.54884e-01        0.00000e+00        0.00000e+00        0.00000e+00        3.86906e-03 
 59.50        3.92393e+00        -3.59730e-01        0.00000e+00        0.00000e+00        0.00000e+00        3.90317e-03 
 60.20        3.92081e+00        -3.64569e-01        0.00000e+00        0.00000e+00        0.00000e+00        3.93699e-03 
 60.90        3.91767e+00        -3.69400e-01        0.00000e+00        0.00000e+00        0.00000e+00        3.97052e-03 
 61.60        3.91449e+00        -3.74223e-01        0.00000e+00        0.00000e+00        0.00000e+00        4.00376e-03 
 62.30        3.91128e+00        -3.79038e-01        0.00000e+00        0.00000e+00        0.00000e+00        4.03670e-03 
 63.00        3.90805e+00        -3.83843e-01        0.00000e+00        0.00000e+00        0.00000e+00        4.06935e-03 
 63.70        3.90478e+00        -3.88638e-01        0.00000e+00        0.00000e+00        0.00000e+00        4.10171e-03 
 64.40        3.90149e+00        -3.93423e-01        0.00000e+00        0.00000e+00        0.00000e+00        4.13377e-03 
 65.10        3.89816e+00        -3.98196e-01        0.00000e+00        0.00000e+00        0.00000e+00        4.16554e-03 
 65.80        3.89480e+00        -4.02959e-01        0.00000e+00        0.00000e+00        0.00000e+00        4.19702e-03 
 66.50        3.89142e+00        -4.07709e-01        0.00000e+00        0.00000e+00        0.00000e+00        4.22820e-03 
 67.20        3.88800e+00        -4.12448e-01        0.00000e+00        0.00000e+00        0.00000e+00        4.25909e-03 
 67.90        3.88455e+00        -4.17173e-01        0.00000e+00        0.00000e+00        0.00000e+00        4.28969e-03 
 68.60        3.88108e+00        -4.21884e-01        0.00000e+00        0.00000e+00        0.00000e+00        4.32000e-03 
 69.30        3.87757e+00        -4.26582e-01        0.00000e+00        0.00000e+00        0.00000e+00        4.35002e-03 
 70.00        3.87403e+00        -4.31266e-01        0.00000e+00        0.00000e+00        0.00000e+00        4.37974e-03 
 70.70        3.87046e+00        -4.35934e-01        0.00000e+00        0.00000e+00        0.00000e+00        4.40917e-03 
 71.40        3.86686e+00        -4.40587e-01        0.00000e+00        0.00000e+00        0.00000e+00        4.43831e-03 
 72.10        3.86322e+00        -4.45225e-01        0.00000e+00        0.00000e+00        0.00000e+00        4.46715e-03 
 72.80        3.85956e+00        -4.49846e-01        0.00000e+00        0.00000e+00        0.00000e+00        4.49571e-03 
 73.50        3.85587e+00        -4.54450e-01        0.00000e+00        0.00000e+00        0.00000e+00        4.52397e-03 
 74.20        3.85214e+00        -4.59037e-01        0.00000e+00        0.00000e+00        0.00000e+00        4.55194e-03 
 74.90        3.84839e+00        -4.63607e-01        0.00000e+00        0.00000e+00        0.00000e+00        4.57963e-03 
 75.60        3.84460e+00        -4.68159e-01        0.00000e+00        0.00000e+00        0.00000e+00        4.60702e-03 
 76.30        3.84079e+00        -4.72692e-01        0.00000e+00        0.00000e+00        0.00000e+00        4.63411e-03 
 77.00        3.83694e+00        -4.77206e-01        0.00000e+00        0.00000e+00        0.00000e+00        4.66092e-03 
 77.70        3.83306e+00        -4.81702e-01        0.00000e+00        0.00000e+00        0.00000e+00        4.68744e-03 
 78.40        3.82915e+00        -4.86177e-01        0.00000e+00        0.00000e+00        0.00000e+00        4.71367e-03 
 79.10        3.82521e+00        -4.90633e-01        0.00000e+00        0.00000e+00        0.00000e+00        4.73961e-03 
 79.80        3.82124e+00        -4.95068e-01        0.00000e+00        0.00000e+00        0.00000e+00        4.76526e-03 
 80.50        3.81724e+00        -4.99483e-01        0.00000e+00        0.00000e+00        0.00000e+00        4.79062e-03 
 81.20        3.81321e+00        -5.03876e-01        0.00000e+00        0.00000e+00        0.00000e+00        4.81569e-03 
 81.90        3.80915e+00        -5.08248e-01        0.00000e+00        0.00000e+00        0.00000e+00        4.84048e-03 
 82.60        3.80505e+00        -5.12598e-01        0.00000e+00        0.00000e+00        0.00000e+00        4.86497e-03 
 83.30        3.80093e+00        -5.16926e-01        0.00000e+00        0.00000e+00        0.00000e+00        4.88918e-03 
 84.00        3.79678e+00        -5.21232e-01        0.00000e+00        0.00000e+00        0.00000e+00        4.91310e-03 
 84.70        3.79259e+00        -5.25514e-01        0.00000e+00        0.00000e+00        0.00000e+00        4.93674e-03 
 85.40        3.78838e+00        -5.29774e-01        0.00000e+00        0.00000e+00        0.00000e+00        4.96009e-03 
 86.10        3.78414e+00        -5.34010e-01        0.00000e+00        0.00000e+00        0.00000e+00        4.98316e-03 
 86.80        3.77987e+00        -5.38222e-01        0.00000e+00        0.00000e+00        0.00000e+00        5.00594e-03 
 87.50        3.77556e+00        -5.42411e-01        0.00000e+00        0.00000e+00        0.00000e+00        5.02843e-03 
 88.20        3.77123e+00        -5.46575e-01        0.00000e+00        0.00000e+00        0.00000e+00        5.05064e-03 
 88.90        3.76687e+00        -5.50714e-01        0.00000e+00        0.00000e+00        0.00000e+00        5.07257e-03 
 89.60        3.76248e+00        -5.54829e-01        0.00000e+00        0.00000e+00        0.00000e+00        5.09422e-03 
 90.30        3.75806e+00        -5.58918e-01        0.00000e+00        0.00000e+00        0.00000e+00        5.11559e-03 
 91.00        3.75361e+00        -5.62982e-01        0.00000e+00        0.00000e+00        0.00000e+00        5.13667e-03 
 91.70        3.74913e+00        -5.67020e-01        0.00000e+00        0.00000e+00        0.00000e+00        5.15747e-03 
 92.40        3.74463e+00        -5.71033e-01        0.00000e+00        0.00000e+00        0.00000e+00        5.17800e-03 
 93.10        3.74009e+00        -5.75019e-01        0.00000e+00        0.00000e+00        0.00000e+00        5.19824e-03 
 93.80        3.73553e+00        -5.78979e-01        0.00000e+00        0.00000e+00        0.00000e+00        5.21821e-03 
 94.50        3.73094e+00        -5.82912e-01        0.00000e+00        0.00000e+00        0.00000e+00        5.23790e-03 
 95.20        3.72632e+00        -5.86819e-01        0.00000e+00        0.00000e+00        0.00000e+00        5.25732e-03 
 95.90        3.72168e+00        -5.90698e-01        0.00000e+00        0.00000e+00        0.00000e+00        5.27646e-03 
 96.60        3.71701e+00        -5.94550e-01        0.00000e+00        0.00000e+00        0.00000e+00        5.29532e-03 
 97.30        3.71231e+00        -5.98375e-01        0.00000e+00        0.00000e+00        0.00000e+00        5.31391e-03 
 98.00        3.70758e+00        -6.02173e-01        0.00000e+00        0.00000e+00        0.00000e+00        5.33223e-03 
 98.70        3.70283e+00        -6.05942e-01        0.00000e+00        0.00000e+00        0.00000e+00        5.35027e-03 
 99.40        3.69805e+00        -6.09684e-01        0.00000e+00        0.00000e+00        0.00000e+00        5.36805e-03 
 100.10        3.69324e+00        -6.13397e-01        0.00000e+00        0.00000e+00        0.00000e+00        5.38555e-03 
 100.80        3.68841e+00        -6.17082e-01        0.00000e+00        0.00000e+00        0.00000e+00        5.40279e-03 
 101.50        3.68355e+00        -6.20739e-01        0.00000e+00        0.00000e+00        0.00000e+00        5.41976e-03 
 102.20        3.67866e+00        -6.24367e-01        0.00000e+00        0.00000e+00        0.00000e+00        5.43646e-03 
 102.90        3.67375e+00        -6.27967e-01        0.00000e+00        0.00000e+00        0.00000e+00        5.45289e-03 
 103.60        3.66882e+00        -6.31537e-01        0.00000e+00        0.00000e+00        0.00000e+00        5.46907e-03 
 104.30        3.66386e+00        -6.35079e-01        0.00000e+00        0.00000e+00        0.00000e+00        5.48497e-03 
 105.00        3.65888e+00        -6.38591e-01        0.00000e+00        0.00000e+00        0.00000e+00        5.50062e-03 
 105.70        3.65387e+00        -6.42075e-01        0.00000e+00        0.00000e+00        0.00000e+00        5.51600e-03 
 106.40        3.64884e+00        -6.45529e-01        0.00000e+00        0.00000e+00        0.00000e+00        5.53113e-03 
 107.10        3.64378e+00        -6.48953e-01        0.00000e+00        0.00000e+00        0.00000e+00        5.54600e-03 
 107.80        3.63870e+00        -6.52349e-01        0.00000e+00        0.00000e+00        0.00000e+00        5.56060e-03 
 108.50        3.63360e+00        -6.55714e-01        0.00000e+00        0.00000e+00        0.00000e+00        5.57496e-03 
 109.20        3.62847e+00        -6.59050e-01        0.00000e+00        0.00000e+00        0.00000e+00        5.58905e-03 
 109.90        3.62333e+00        -6.62356e-01        0.00000e+00        0.00000e+00        0.00000e+00        5.60290e-03 
 110.60        3.61815e+00        -6.65632e-01        0.00000e+00        0.00000e+00        0.00000e+00        5.61649e-03 
 111.30        3.61296e+00        -6.68879e-01        0.00000e+00        0.00000e+00        0.00000e+00        5.62983e-03 
 112.00        3.60775e+00        -6.72095e-01        0.00000e+00        0.00000e+00        0.00000e+00        5.64292e-03 
