#Navio B MarAd
#Manobra de Curva Giro
#
#Velocidade Inercial
#
#temp           u           v           r
 0.00        4.11000e+00        0.00000e+00        0.00000e+00 
 0.70        4.11000e+00        1.08958e-04        0.00000e+00 
 1.40        4.11000e+00        2.13349e-04        0.00000e+00 
 2.10        4.10816e+00        -2.61130e-03        0.00000e+00 
 2.80        4.10632e+00        -5.31730e-03        0.00000e+00 
 3.50        4.10449e+00        -7.90521e-03        0.00000e+00 
 4.20        4.10265e+00        -1.03756e-02        0.00000e+00 
 4.90        4.10082e+00        -1.27290e-02        0.00000e+00 
 5.60        4.09900e+00        -1.49658e-02        0.00000e+00 
 6.30        4.09717e+00        -1.70867e-02        0.00000e+00 
 7.00        4.09535e+00        -1.90921e-02        0.00000e+00 
 7.70        4.09352e+00        -2.09825e-02        0.00000e+00 
 8.40        4.09170e+00        -2.27583e-02        0.00000e+00 
 9.10        4.08988e+00        -2.44200e-02        0.00000e+00 
 9.80        4.08806e+00        -2.59681e-02        0.00000e+00 
 10.50        4.08624e+00        -2.74030e-02        0.00000e+00 
 11.20        4.08442e+00        -2.87250e-02        0.00000e+00 
 11.90        4.08259e+00        -2.99347e-02        0.00000e+00 
 12.60        4.08077e+00        -3.10325e-02        0.00000e+00 
 13.30        4.07895e+00        -3.20186e-02        0.00000e+00 
 14.00        4.07712e+00        -3.28936e-02        0.00000e+00 
 14.70        4.07529e+00        -3.36579e-02        0.00000e+00 
 15.40        4.07346e+00        -3.43117e-02        0.00000e+00 
 16.10        4.07163e+00        -3.48556e-02        0.00000e+00 
 16.80        4.06979e+00        -3.52897e-02        0.00000e+00 
 17.50        4.06795e+00        -3.56147e-02        0.00000e+00 
 18.20        4.06610e+00        -3.58307e-02        0.00000e+00 
 18.90        4.06425e+00        -3.59382e-02        0.00000e+00 
 19.60        4.06239e+00        -3.59375e-02        0.00000e+00 
 20.30        4.06053e+00        -3.58290e-02        0.00000e+00 
 21.00        4.05866e+00        -3.56130e-02        0.00000e+00 
 21.70        4.05678e+00        -3.52900e-02        0.00000e+00 
 22.40        4.05490e+00        -3.48602e-02        0.00000e+00 
 23.10        4.05300e+00        -3.43240e-02        0.00000e+00 
 23.80        4.05110e+00        -3.36818e-02        0.00000e+00 
 24.50        4.04919e+00        -3.29339e-02        0.00000e+00 
 25.20        4.04727e+00        -3.20807e-02        0.00000e+00 
 25.90        4.04534e+00        -3.11226e-02        0.00000e+00 
 26.60        4.04340e+00        -3.00599e-02        0.00000e+00 
 27.30        4.04144e+00        -2.88930e-02        0.00000e+00 
 28.00        4.03948e+00        -2.76223e-02        0.00000e+00 
 28.70        4.03750e+00        -2.62481e-02        0.00000e+00 
 29.40        4.03551e+00        -2.47708e-02        0.00000e+00 
 30.10        4.03350e+00        -2.31908e-02        0.00000e+00 
 30.80        4.03148e+00        -2.15086e-02        0.00000e+00 
 31.50        4.02945e+00        -1.97244e-02        0.00000e+00 
 32.20        4.02739e+00        -1.78387e-02        0.00000e+00 
 32.90        4.02533e+00        -1.58519e-02        0.00000e+00 
 33.60        4.02324e+00        -1.37644e-02        0.00000e+00 
 34.30        4.02114e+00        -1.15767e-02        0.00000e+00 
 35.00        4.01902e+00        -9.28905e-03        0.00000e+00 
 35.70        4.01688e+00        -6.90204e-03        0.00000e+00 
 36.40        4.01472e+00        -4.41606e-03        0.00000e+00 
 37.10        4.01254e+00        -1.83156e-03        0.00000e+00 
 37.80        4.01034e+00        8.51003e-04        0.00000e+00 
 38.50        4.00812e+00        3.63116e-03        0.00000e+00 
 39.20        4.00588e+00        6.50844e-03        0.00000e+00 
 39.90        4.00361e+00        9.48235e-03        0.00000e+00 
 40.60        4.00132e+00        1.25524e-02        0.00000e+00 
 41.30        3.99901e+00        1.57181e-02        0.00000e+00 
 42.00        3.99667e+00        1.89789e-02        0.00000e+00 
 42.70        3.99430e+00        2.23344e-02        0.00000e+00 
 43.40        3.99191e+00        2.57839e-02        0.00000e+00 
 44.10        3.98950e+00        2.93269e-02        0.00000e+00 
 44.80        3.98705e+00        3.29630e-02        0.00000e+00 
 45.50        3.98458e+00        3.66914e-02        0.00000e+00 
 46.20        3.98208e+00        4.05117e-02        0.00000e+00 
 46.90        3.97955e+00        4.44233e-02        0.00000e+00 
 47.60        3.97699e+00        4.84255e-02        0.00000e+00 
 48.30        3.97440e+00        5.25178e-02        0.00000e+00 
 49.00        3.97178e+00        5.66996e-02        0.00000e+00 
 49.70        3.96913e+00        6.09701e-02        0.00000e+00 
 50.40        3.96645e+00        6.53289e-02        0.00000e+00 
 51.10        3.96373e+00        6.97751e-02        0.00000e+00 
 51.80        3.96098e+00        7.43083e-02        0.00000e+00 
 52.50        3.95819e+00        7.89276e-02        0.00000e+00 
 53.20        3.95537e+00        8.36324e-02        0.00000e+00 
 53.90        3.95252e+00        8.84221e-02        0.00000e+00 
 54.60        3.94963e+00        9.32958e-02        0.00000e+00 
 55.30        3.94670e+00        9.82530e-02        0.00000e+00 
 56.00        3.94374e+00        1.03293e-01        0.00000e+00 
 56.70        3.94074e+00        1.08415e-01        0.00000e+00 
 57.40        3.93770e+00        1.13617e-01        0.00000e+00 
 58.10        3.93462e+00        1.18901e-01        0.00000e+00 
 58.80        3.93150e+00        1.24264e-01        0.00000e+00 
 59.50        3.92834e+00        1.29705e-01        0.00000e+00 
 60.20        3.92514e+00        1.35225e-01        0.00000e+00 
 60.90        3.92190e+00        1.40822e-01        0.00000e+00 
 61.60        3.91862e+00        1.46496e-01        0.00000e+00 
 62.30        3.91530e+00        1.52245e-01        0.00000e+00 
 63.00        3.91194e+00        1.58069e-01        0.00000e+00 
 63.70        3.90853e+00        1.63967e-01        0.00000e+00 
 64.40        3.90508e+00        1.69937e-01        0.00000e+00 
 65.10        3.90158e+00        1.75980e-01        0.00000e+00 
 65.80        3.89804e+00        1.82095e-01        0.00000e+00 
 66.50        3.89446e+00        1.88279e-01        0.00000e+00 
 67.20        3.89083e+00        1.94533e-01        0.00000e+00 
 67.90        3.88715e+00        2.00856e-01        0.00000e+00 
 68.60        3.88343e+00        2.07247e-01        0.00000e+00 
 69.30        3.87967e+00        2.13704e-01        0.00000e+00 
 70.00        3.87585e+00        2.20227e-01        0.00000e+00 
 70.70        3.87199e+00        2.26815e-01        0.00000e+00 
 71.40        3.86808e+00        2.33467e-01        0.00000e+00 
 72.10        3.86412e+00        2.40182e-01        0.00000e+00 
 72.80        3.86011e+00        2.46959e-01        0.00000e+00 
 73.50        3.85606e+00        2.53796e-01        0.00000e+00 
 74.20        3.85196e+00        2.60694e-01        0.00000e+00 
 74.90        3.84780e+00        2.67651e-01        0.00000e+00 
 75.60        3.84360e+00        2.74666e-01        0.00000e+00 
 76.30        3.83934e+00        2.81738e-01        0.00000e+00 
 77.00        3.83504e+00        2.88866e-01        0.00000e+00 
 77.70        3.83069e+00        2.96049e-01        0.00000e+00 
 78.40        3.82628e+00        3.03287e-01        0.00000e+00 
 79.10        3.82182e+00        3.10577e-01        0.00000e+00 
 79.80        3.81731e+00        3.17919e-01        0.00000e+00 
 80.50        3.81275e+00        3.25312e-01        0.00000e+00 
 81.20        3.80814e+00        3.32754e-01        0.00000e+00 
 81.90        3.80348e+00        3.40246e-01        0.00000e+00 
 82.60        3.79876e+00        3.47785e-01        0.00000e+00 
 83.30        3.79399e+00        3.55371e-01        0.00000e+00 
 84.00        3.78917e+00        3.63003e-01        0.00000e+00 
 84.70        3.78430e+00        3.70680e-01        0.00000e+00 
 85.40        3.77937e+00        3.78399e-01        0.00000e+00 
 86.10        3.77439e+00        3.86162e-01        0.00000e+00 
 86.80        3.76935e+00        3.93965e-01        0.00000e+00 
 87.50        3.76427e+00        4.01809e-01        0.00000e+00 
 88.20        3.75912e+00        4.09693e-01        0.00000e+00 
 88.90        3.75393e+00        4.17614e-01        0.00000e+00 
 89.60        3.74868e+00        4.25573e-01        0.00000e+00 
 90.30        3.74338e+00        4.33567e-01        0.00000e+00 
 91.00        3.73802e+00        4.41597e-01        0.00000e+00 
 91.70        3.73262e+00        4.49660e-01        0.00000e+00 
 92.40        3.72715e+00        4.57756e-01        0.00000e+00 
 93.10        3.72164e+00        4.65884e-01        0.00000e+00 
 93.80        3.71607e+00        4.74042e-01        0.00000e+00 
 94.50        3.71044e+00        4.82231e-01        0.00000e+00 
 95.20        3.70476e+00        4.90447e-01        0.00000e+00 
 95.90        3.69903e+00        4.98691e-01        0.00000e+00 
 96.60        3.69325e+00        5.06962e-01        0.00000e+00 
 97.30        3.68741e+00        5.15257e-01        0.00000e+00 
 98.00        3.68152e+00        5.23577e-01        0.00000e+00 
 98.70        3.67557e+00        5.31920e-01        0.00000e+00 
 99.40        3.66957e+00        5.40285e-01        0.00000e+00 
 100.10        3.66352e+00        5.48672e-01        0.00000e+00 
 100.80        3.65741e+00        5.57078e-01        0.00000e+00 
 101.50        3.65126e+00        5.65503e-01        0.00000e+00 
 102.20        3.64505e+00        5.73946e-01        0.00000e+00 
 102.90        3.63878e+00        5.82406e-01        0.00000e+00 
 103.60        3.63247e+00        5.90882e-01        0.00000e+00 
 104.30        3.62610e+00        5.99373e-01        0.00000e+00 
 105.00        3.61968e+00        6.07877e-01        0.00000e+00 
 105.70        3.61321e+00        6.16394e-01        0.00000e+00 
 106.40        3.60668e+00        6.24923e-01        0.00000e+00 
 107.10        3.60011e+00        6.33463e-01        0.00000e+00 
 107.80        3.59348e+00        6.42013e-01        0.00000e+00 
 108.50        3.58680e+00        6.50571e-01        0.00000e+00 
 109.20        3.58008e+00        6.59137e-01        0.00000e+00 
 109.90        3.57330e+00        6.67710e-01        0.00000e+00 
 110.60        3.56647e+00        6.76289e-01        0.00000e+00 
 111.30        3.55959e+00        6.84872e-01        0.00000e+00 
 112.00        3.55267e+00        6.93460e-01        0.00000e+00 
 112.70        3.54569e+00        7.02050e-01        0.00000e+00 
 113.40        3.53866e+00        7.10643e-01        0.00000e+00 
 114.10        3.53159e+00        7.19237e-01        0.00000e+00 
 114.80        3.52447e+00        7.27830e-01        0.00000e+00 
 115.50        3.51730e+00        7.36423e-01        0.00000e+00 
 116.20        3.51008e+00        7.45015e-01        0.00000e+00 
 116.90        3.50281e+00        7.53603e-01        0.00000e+00 
 117.60        3.49550e+00        7.62189e-01        0.00000e+00 
 118.30        3.48814e+00        7.70770e-01        0.00000e+00 
 119.00        3.48074e+00        7.79345e-01        0.00000e+00 
 119.70        3.47329e+00        7.87915e-01        0.00000e+00 
 120.40        3.46579e+00        7.96478e-01        0.00000e+00 
 121.10        3.45825e+00        8.05033e-01        0.00000e+00 
 121.80        3.45067e+00        8.13579e-01        0.00000e+00 
 122.50        3.44304e+00        8.22116e-01        0.00000e+00 
 123.20        3.43537e+00        8.30643e-01        0.00000e+00 
 123.90        3.42765e+00        8.39158e-01        0.00000e+00 
 124.60        3.41989e+00        8.47662e-01        0.00000e+00 
 125.30        3.41209e+00        8.56153e-01        0.00000e+00 
 126.00        3.40425e+00        8.64631e-01        0.00000e+00 
 126.70        3.39636e+00        8.73095e-01        0.00000e+00 
 127.40        3.38844e+00        8.81543e-01        0.00000e+00 
 128.10        3.38047e+00        8.89976e-01        0.00000e+00 
 128.80        3.37247e+00        8.98393e-01        0.00000e+00 
 129.50        3.36442e+00        9.06792e-01        0.00000e+00 
 130.20        3.35633e+00        9.15174e-01        0.00000e+00 
 130.90        3.34821e+00        9.23537e-01        0.00000e+00 
 131.60        3.34005e+00        9.31881e-01        0.00000e+00 
 132.30        3.33185e+00        9.40205e-01        0.00000e+00 
 133.00        3.32361e+00        9.48509e-01        0.00000e+00 
 133.70        3.31534e+00        9.56791e-01        0.00000e+00 
 134.40        3.30703e+00        9.65052e-01        0.00000e+00 
 135.10        3.29869e+00        9.73290e-01        0.00000e+00 
 135.80        3.29031e+00        9.81505e-01        0.00000e+00 
 136.50        3.28189e+00        9.89696e-01        0.00000e+00 
 137.20        3.27344e+00        9.97863e-01        0.00000e+00 
 137.90        3.26496e+00        1.00600e+00        0.00000e+00 
 138.60        3.25644e+00        1.01412e+00        0.00000e+00 
 139.30        3.24790e+00        1.02221e+00        0.00000e+00 
 140.00        3.23932e+00        1.03028e+00        0.00000e+00 
 140.70        3.23070e+00        1.03831e+00        0.00000e+00 
 141.40        3.22206e+00        1.04632e+00        0.00000e+00 
 142.10        3.21339e+00        1.05430e+00        0.00000e+00 
 142.80        3.20468e+00        1.06225e+00        0.00000e+00 
 143.50        3.19595e+00        1.07018e+00        0.00000e+00 
 144.20        3.18719e+00        1.07807e+00        0.00000e+00 
 144.90        3.17840e+00        1.08593e+00        0.00000e+00 
 145.60        3.16958e+00        1.09376e+00        0.00000e+00 
 146.30        3.16073e+00        1.10157e+00        0.00000e+00 
 147.00        3.15186e+00        1.10934e+00        0.00000e+00 
 147.70        3.14296e+00        1.11707e+00        0.00000e+00 
 148.40        3.13404e+00        1.12478e+00        0.00000e+00 
 149.10        3.12509e+00        1.13245e+00        0.00000e+00 
 149.80        3.11611e+00        1.14009e+00        0.00000e+00 
 150.50        3.10711e+00        1.14770e+00        0.00000e+00 
 151.20        3.09809e+00        1.15527e+00        0.00000e+00 
 151.90        3.08905e+00        1.16280e+00        0.00000e+00 
 152.60        3.07998e+00        1.17031e+00        0.00000e+00 
 153.30        3.07089e+00        1.17777e+00        0.00000e+00 
 154.00        3.06178e+00        1.18521e+00        0.00000e+00 
 154.70        3.05264e+00        1.19260e+00        0.00000e+00 
 155.40        3.04349e+00        1.19996e+00        0.00000e+00 
 156.10        3.03432e+00        1.20728e+00        0.00000e+00 
 156.80        3.02512e+00        1.21457e+00        0.00000e+00 
 157.50        3.01591e+00        1.22182e+00        0.00000e+00 
 158.20        3.00668e+00        1.22903e+00        0.00000e+00 
 158.90        2.99743e+00        1.23621e+00        0.00000e+00 
 159.60        2.98817e+00        1.24335e+00        0.00000e+00 
 160.30        2.97889e+00        1.25044e+00        0.00000e+00 
 161.00        2.96959e+00        1.25751e+00        0.00000e+00 
 161.70        2.96027e+00        1.26453e+00        0.00000e+00 
 162.40        2.95094e+00        1.27151e+00        0.00000e+00 
 163.10        2.94160e+00        1.27845e+00        0.00000e+00 
 163.80        2.93224e+00        1.28536e+00        0.00000e+00 
 164.50        2.92287e+00        1.29223e+00        0.00000e+00 
 165.20        2.91348e+00        1.29905e+00        0.00000e+00 
 165.90        2.90408e+00        1.30584e+00        0.00000e+00 
 166.60        2.89467e+00        1.31258e+00        0.00000e+00 
 167.30        2.88524e+00        1.31929e+00        0.00000e+00 
 168.00        2.87581e+00        1.32596e+00        0.00000e+00 
 168.70        2.86636e+00        1.33258e+00        0.00000e+00 
 169.40        2.85691e+00        1.33917e+00        0.00000e+00 
 170.10        2.84744e+00        1.34571e+00        0.00000e+00 
 170.80        2.83796e+00        1.35221e+00        0.00000e+00 
 171.50        2.82848e+00        1.35867e+00        0.00000e+00 
 172.20        2.81898e+00        1.36510e+00        0.00000e+00 
 172.90        2.80948e+00        1.37147e+00        0.00000e+00 
 173.60        2.79997e+00        1.37781e+00        0.00000e+00 
 174.30        2.79046e+00        1.38411e+00        0.00000e+00 
 175.00        2.78093e+00        1.39037e+00        0.00000e+00 
 175.70        2.77140e+00        1.39658e+00        0.00000e+00 
 176.40        2.76187e+00        1.40275e+00        0.00000e+00 
 177.10        2.75232e+00        1.40888e+00        0.00000e+00 
 177.80        2.74278e+00        1.41497e+00        0.00000e+00 
 178.50        2.73322e+00        1.42102e+00        0.00000e+00 
 179.20        2.72367e+00        1.42702e+00        0.00000e+00 
 179.90        2.71411e+00        1.43299e+00        0.00000e+00 
 180.60        2.70455e+00        1.43891e+00        0.00000e+00 
 181.30        2.69498e+00        1.44479e+00        0.00000e+00 
 182.00        2.68541e+00        1.45063e+00        0.00000e+00 
 182.70        2.67584e+00        1.45642e+00        0.00000e+00 
 183.40        2.66627e+00        1.46218e+00        0.00000e+00 
 184.10        2.65670e+00        1.46789e+00        0.00000e+00 
 184.80        2.64712e+00        1.47356e+00        0.00000e+00 
 185.50        2.63755e+00        1.47919e+00        0.00000e+00 
 186.20        2.62797e+00        1.48477e+00        0.00000e+00 
 186.90        2.61839e+00        1.49032e+00        0.00000e+00 
 187.60        2.60882e+00        1.49582e+00        0.00000e+00 
 188.30        2.59925e+00        1.50128e+00        0.00000e+00 
 189.00        2.58967e+00        1.50670e+00        0.00000e+00 
 189.70        2.58010e+00        1.51208e+00        0.00000e+00 
 190.40        2.57053e+00        1.51741e+00        0.00000e+00 
 191.10        2.56097e+00        1.52270e+00        0.00000e+00 
 191.80        2.55140e+00        1.52796e+00        0.00000e+00 
 192.50        2.54184e+00        1.53317e+00        0.00000e+00 
 193.20        2.53228e+00        1.53834e+00        0.00000e+00 
 193.90        2.52273e+00        1.54346e+00        0.00000e+00 
 194.60        2.51318e+00        1.54855e+00        0.00000e+00 
 195.30        2.50364e+00        1.55359e+00        0.00000e+00 
 196.00        2.49410e+00        1.55860e+00        0.00000e+00 
 196.70        2.48456e+00        1.56356e+00        0.00000e+00 
 197.40        2.47503e+00        1.56848e+00        0.00000e+00 
 198.10        2.46550e+00        1.57336e+00        0.00000e+00 
 198.80        2.45599e+00        1.57820e+00        0.00000e+00 
 199.50        2.44647e+00        1.58300e+00        0.00000e+00 
 200.20        2.43697e+00        1.58776e+00        0.00000e+00 
 200.90        2.42747e+00        1.59248e+00        0.00000e+00 
 201.60        2.41798e+00        1.59716e+00        0.00000e+00 
 202.30        2.40849e+00        1.60179e+00        0.00000e+00 
 203.00        2.39902e+00        1.60639e+00        0.00000e+00 
 203.70        2.38955e+00        1.61095e+00        0.00000e+00 
 204.40        2.38009e+00        1.61547e+00        0.00000e+00 
 205.10        2.37063e+00        1.61994e+00        0.00000e+00 
 205.80        2.36119e+00        1.62438e+00        0.00000e+00 
 206.50        2.35176e+00        1.62878e+00        0.00000e+00 
 207.20        2.34233e+00        1.63314e+00        0.00000e+00 
 207.90        2.33292e+00        1.63746e+00        0.00000e+00 
 208.60        2.32351e+00        1.64174e+00        0.00000e+00 
 209.30        2.31412e+00        1.64598e+00        0.00000e+00 
 210.00        2.30473e+00        1.65018e+00        0.00000e+00 
 210.70        2.29536e+00        1.65435e+00        0.00000e+00 
 211.40        2.28599e+00        1.65847e+00        0.00000e+00 
