#Navio B MarAd
#Manobra de Curva Giro
#
#Velocidade Sistema Solidário 
#
#temp           u           v           w    dot roll   dot pitch     dot yaw 
 0.00        4.11000e+00        0.00000e+00        0.00000e+00        0.00000e+00        0.00000e+00        0.00000e+00 
 0.70        4.11000e+00        8.64984e-05        0.00000e+00        0.00000e+00        0.00000e+00        -1.86400e-06 
 1.40        4.11000e+00        1.74827e-04        0.00000e+00        0.00000e+00        0.00000e+00        -3.71374e-06 
 2.10        4.10816e+00        -2.75242e-03        0.00000e+00        0.00000e+00        0.00000e+00        5.89500e-05 
 2.80        4.10632e+00        -5.73931e-03        0.00000e+00        0.00000e+00        0.00000e+00        1.21102e-04 
 3.50        4.10448e+00        -8.78475e-03        0.00000e+00        0.00000e+00        0.00000e+00        1.82750e-04 
 4.20        4.10265e+00        -1.18877e-02        0.00000e+00        0.00000e+00        0.00000e+00        2.43903e-04 
 4.90        4.10081e+00        -1.50470e-02        0.00000e+00        0.00000e+00        0.00000e+00        3.04570e-04 
 5.60        4.09898e+00        -1.82616e-02        0.00000e+00        0.00000e+00        0.00000e+00        3.64756e-04 
 6.30        4.09714e+00        -2.15305e-02        0.00000e+00        0.00000e+00        0.00000e+00        4.24471e-04 
 7.00        4.09531e+00        -2.48527e-02        0.00000e+00        0.00000e+00        0.00000e+00        4.83722e-04 
 7.70        4.09347e+00        -2.82271e-02        0.00000e+00        0.00000e+00        0.00000e+00        5.42515e-04 
 8.40        4.09164e+00        -3.16527e-02        0.00000e+00        0.00000e+00        0.00000e+00        6.00858e-04 
 9.10        4.08980e+00        -3.51284e-02        0.00000e+00        0.00000e+00        0.00000e+00        6.58756e-04 
 9.80        4.08796e+00        -3.86533e-02        0.00000e+00        0.00000e+00        0.00000e+00        7.16217e-04 
 10.50        4.08612e+00        -4.22264e-02        0.00000e+00        0.00000e+00        0.00000e+00        7.73247e-04 
 11.20        4.08427e+00        -4.58467e-02        0.00000e+00        0.00000e+00        0.00000e+00        8.29852e-04 
 11.90        4.08242e+00        -4.95131e-02        0.00000e+00        0.00000e+00        0.00000e+00        8.86038e-04 
 12.60        4.08057e+00        -5.32248e-02        0.00000e+00        0.00000e+00        0.00000e+00        9.41810e-04 
 13.30        4.07871e+00        -5.69808e-02        0.00000e+00        0.00000e+00        0.00000e+00        9.97173e-04 
 14.00        4.07685e+00        -6.07801e-02        0.00000e+00        0.00000e+00        0.00000e+00        1.05213e-03 
 14.70        4.07498e+00        -6.46217e-02        0.00000e+00        0.00000e+00        0.00000e+00        1.10670e-03 
 15.40        4.07310e+00        -6.85047e-02        0.00000e+00        0.00000e+00        0.00000e+00        1.16087e-03 
 16.10        4.07122e+00        -7.24282e-02        0.00000e+00        0.00000e+00        0.00000e+00        1.21465e-03 
 16.80        4.06933e+00        -7.63913e-02        0.00000e+00        0.00000e+00        0.00000e+00        1.26804e-03 
 17.50        4.06744e+00        -8.03930e-02        0.00000e+00        0.00000e+00        0.00000e+00        1.32106e-03 
 18.20        4.06554e+00        -8.44325e-02        0.00000e+00        0.00000e+00        0.00000e+00        1.37371e-03 
 18.90        4.06363e+00        -8.85087e-02        0.00000e+00        0.00000e+00        0.00000e+00        1.42598e-03 
 19.60        4.06171e+00        -9.26208e-02        0.00000e+00        0.00000e+00        0.00000e+00        1.47788e-03 
 20.30        4.05978e+00        -9.67680e-02        0.00000e+00        0.00000e+00        0.00000e+00        1.52943e-03 
 21.00        4.05784e+00        -1.00949e-01        0.00000e+00        0.00000e+00        0.00000e+00        1.58061e-03 
 21.70        4.05589e+00        -1.05164e-01        0.00000e+00        0.00000e+00        0.00000e+00        1.63143e-03 
 22.40        4.05393e+00        -1.09411e-01        0.00000e+00        0.00000e+00        0.00000e+00        1.68191e-03 
 23.10        4.05196e+00        -1.13689e-01        0.00000e+00        0.00000e+00        0.00000e+00        1.73203e-03 
 23.80        4.04998e+00        -1.17998e-01        0.00000e+00        0.00000e+00        0.00000e+00        1.78181e-03 
 24.50        4.04799e+00        -1.22337e-01        0.00000e+00        0.00000e+00        0.00000e+00        1.83124e-03 
 25.20        4.04598e+00        -1.26704e-01        0.00000e+00        0.00000e+00        0.00000e+00        1.88034e-03 
 25.90        4.04396e+00        -1.31100e-01        0.00000e+00        0.00000e+00        0.00000e+00        1.92909e-03 
 26.60        4.04193e+00        -1.35523e-01        0.00000e+00        0.00000e+00        0.00000e+00        1.97751e-03 
 27.30        4.03989e+00        -1.39972e-01        0.00000e+00        0.00000e+00        0.00000e+00        2.02560e-03 
 28.00        4.03783e+00        -1.44447e-01        0.00000e+00        0.00000e+00        0.00000e+00        2.07336e-03 
 28.70        4.03575e+00        -1.48946e-01        0.00000e+00        0.00000e+00        0.00000e+00        2.12079e-03 
 29.40        4.03367e+00        -1.53470e-01        0.00000e+00        0.00000e+00        0.00000e+00        2.16789e-03 
 30.10        4.03156e+00        -1.58016e-01        0.00000e+00        0.00000e+00        0.00000e+00        2.21467e-03 
 30.80        4.02944e+00        -1.62585e-01        0.00000e+00        0.00000e+00        0.00000e+00        2.26113e-03 
 31.50        4.02730e+00        -1.67175e-01        0.00000e+00        0.00000e+00        0.00000e+00        2.30727e-03 
 32.20        4.02515e+00        -1.71785e-01        0.00000e+00        0.00000e+00        0.00000e+00        2.35309e-03 
 32.90        4.02298e+00        -1.76416e-01        0.00000e+00        0.00000e+00        0.00000e+00        2.39859e-03 
 33.60        4.02079e+00        -1.81066e-01        0.00000e+00        0.00000e+00        0.00000e+00        2.44378e-03 
 34.30        4.01858e+00        -1.85734e-01        0.00000e+00        0.00000e+00        0.00000e+00        2.48865e-03 
 35.00        4.01636e+00        -1.90419e-01        0.00000e+00        0.00000e+00        0.00000e+00        2.53322e-03 
 35.70        4.01411e+00        -1.95121e-01        0.00000e+00        0.00000e+00        0.00000e+00        2.57747e-03 
 36.40        4.01185e+00        -1.99839e-01        0.00000e+00        0.00000e+00        0.00000e+00        2.62141e-03 
 37.10        4.00957e+00        -2.04572e-01        0.00000e+00        0.00000e+00        0.00000e+00        2.66505e-03 
 37.80        4.00727e+00        -2.09320e-01        0.00000e+00        0.00000e+00        0.00000e+00        2.70838e-03 
 38.50        4.00494e+00        -2.14081e-01        0.00000e+00        0.00000e+00        0.00000e+00        2.75140e-03 
 39.20        4.00260e+00        -2.18855e-01        0.00000e+00        0.00000e+00        0.00000e+00        2.79412e-03 
 39.90        4.00023e+00        -2.23642e-01        0.00000e+00        0.00000e+00        0.00000e+00        2.83654e-03 
 40.60        3.99785e+00        -2.28439e-01        0.00000e+00        0.00000e+00        0.00000e+00        2.87865e-03 
 41.30        3.99544e+00        -2.33248e-01        0.00000e+00        0.00000e+00        0.00000e+00        2.92046e-03 
 42.00        3.99301e+00        -2.38066e-01        0.00000e+00        0.00000e+00        0.00000e+00        2.96197e-03 
 42.70        3.99056e+00        -2.42894e-01        0.00000e+00        0.00000e+00        0.00000e+00        3.00317e-03 
 43.40        3.98808e+00        -2.47730e-01        0.00000e+00        0.00000e+00        0.00000e+00        3.04408e-03 
 44.10        3.98558e+00        -2.52574e-01        0.00000e+00        0.00000e+00        0.00000e+00        3.08469e-03 
 44.80        3.98306e+00        -2.57425e-01        0.00000e+00        0.00000e+00        0.00000e+00        3.12500e-03 
 45.50        3.98051e+00        -2.62282e-01        0.00000e+00        0.00000e+00        0.00000e+00        3.16502e-03 
 46.20        3.97794e+00        -2.67145e-01        0.00000e+00        0.00000e+00        0.00000e+00        3.20473e-03 
 46.90        3.97535e+00        -2.72013e-01        0.00000e+00        0.00000e+00        0.00000e+00        3.24415e-03 
 47.60        3.97273e+00        -2.76885e-01        0.00000e+00        0.00000e+00        0.00000e+00        3.28327e-03 
 48.30        3.97008e+00        -2.81761e-01        0.00000e+00        0.00000e+00        0.00000e+00        3.32210e-03 
 49.00        3.96741e+00        -2.86640e-01        0.00000e+00        0.00000e+00        0.00000e+00        3.36063e-03 
 49.70        3.96472e+00        -2.91522e-01        0.00000e+00        0.00000e+00        0.00000e+00        3.39886e-03 
 50.40        3.96200e+00        -2.96404e-01        0.00000e+00        0.00000e+00        0.00000e+00        3.43680e-03 
 51.10        3.95925e+00        -3.01288e-01        0.00000e+00        0.00000e+00        0.00000e+00        3.47444e-03 
 51.80        3.95647e+00        -3.06172e-01        0.00000e+00        0.00000e+00        0.00000e+00        3.51179e-03 
 52.50        3.95367e+00        -3.11056e-01        0.00000e+00        0.00000e+00        0.00000e+00        3.54885e-03 
 53.20        3.95084e+00        -3.15939e-01        0.00000e+00        0.00000e+00        0.00000e+00        3.58561e-03 
 53.90        3.94799e+00        -3.20820e-01        0.00000e+00        0.00000e+00        0.00000e+00        3.62207e-03 
 54.60        3.94511e+00        -3.25699e-01        0.00000e+00        0.00000e+00        0.00000e+00        3.65825e-03 
 55.30        3.94220e+00        -3.30575e-01        0.00000e+00        0.00000e+00        0.00000e+00        3.69413e-03 
 56.00        3.93926e+00        -3.35447e-01        0.00000e+00        0.00000e+00        0.00000e+00        3.72971e-03 
 56.70        3.93629e+00        -3.40316e-01        0.00000e+00        0.00000e+00        0.00000e+00        3.76500e-03 
 57.40        3.93330e+00        -3.45180e-01        0.00000e+00        0.00000e+00        0.00000e+00        3.80000e-03 
 58.10        3.93027e+00        -3.50038e-01        0.00000e+00        0.00000e+00        0.00000e+00        3.83470e-03 
 58.80        3.92722e+00        -3.54891e-01        0.00000e+00        0.00000e+00        0.00000e+00        3.86912e-03 
 59.50        3.92414e+00        -3.59737e-01        0.00000e+00        0.00000e+00        0.00000e+00        3.90323e-03 
 60.20        3.92103e+00        -3.64576e-01        0.00000e+00        0.00000e+00        0.00000e+00        3.93706e-03 
 60.90        3.91789e+00        -3.69408e-01        0.00000e+00        0.00000e+00        0.00000e+00        3.97059e-03 
 61.60        3.91473e+00        -3.74232e-01        0.00000e+00        0.00000e+00        0.00000e+00        4.00383e-03 
 62.30        3.91153e+00        -3.79046e-01        0.00000e+00        0.00000e+00        0.00000e+00        4.03678e-03 
 63.00        3.90830e+00        -3.83852e-01        0.00000e+00        0.00000e+00        0.00000e+00        4.06943e-03 
 63.70        3.90505e+00        -3.88647e-01        0.00000e+00        0.00000e+00        0.00000e+00        4.10179e-03 
 64.40        3.90176e+00        -3.93433e-01        0.00000e+00        0.00000e+00        0.00000e+00        4.13386e-03 
 65.10        3.89845e+00        -3.98207e-01        0.00000e+00        0.00000e+00        0.00000e+00        4.16563e-03 
 65.80        3.89510e+00        -4.02970e-01        0.00000e+00        0.00000e+00        0.00000e+00        4.19711e-03 
 66.50        3.89172e+00        -4.07721e-01        0.00000e+00        0.00000e+00        0.00000e+00        4.22830e-03 
 67.20        3.88832e+00        -4.12460e-01        0.00000e+00        0.00000e+00        0.00000e+00        4.25920e-03 
 67.90        3.88488e+00        -4.17186e-01        0.00000e+00        0.00000e+00        0.00000e+00        4.28980e-03 
 68.60        3.88141e+00        -4.21898e-01        0.00000e+00        0.00000e+00        0.00000e+00        4.32012e-03 
 69.30        3.87792e+00        -4.26597e-01        0.00000e+00        0.00000e+00        0.00000e+00        4.35014e-03 
 70.00        3.87439e+00        -4.31281e-01        0.00000e+00        0.00000e+00        0.00000e+00        4.37987e-03 
 70.70        3.87083e+00        -4.35950e-01        0.00000e+00        0.00000e+00        0.00000e+00        4.40930e-03 
 71.40        3.86724e+00        -4.40604e-01        0.00000e+00        0.00000e+00        0.00000e+00        4.43845e-03 
 72.10        3.86362e+00        -4.45242e-01        0.00000e+00        0.00000e+00        0.00000e+00        4.46730e-03 
 72.80        3.85997e+00        -4.49864e-01        0.00000e+00        0.00000e+00        0.00000e+00        4.49586e-03 
 73.50        3.85629e+00        -4.54469e-01        0.00000e+00        0.00000e+00        0.00000e+00        4.52413e-03 
 74.20        3.85258e+00        -4.59057e-01        0.00000e+00        0.00000e+00        0.00000e+00        4.55211e-03 
 74.90        3.84884e+00        -4.63627e-01        0.00000e+00        0.00000e+00        0.00000e+00        4.57979e-03 
 75.60        3.84507e+00        -4.68180e-01        0.00000e+00        0.00000e+00        0.00000e+00        4.60719e-03 
 76.30        3.84127e+00        -4.72714e-01        0.00000e+00        0.00000e+00        0.00000e+00        4.63430e-03 
 77.00        3.83743e+00        -4.77229e-01        0.00000e+00        0.00000e+00        0.00000e+00        4.66111e-03 
 77.70        3.83357e+00        -4.81726e-01        0.00000e+00        0.00000e+00        0.00000e+00        4.68764e-03 
 78.40        3.82967e+00        -4.86202e-01        0.00000e+00        0.00000e+00        0.00000e+00        4.71388e-03 
 79.10        3.82575e+00        -4.90659e-01        0.00000e+00        0.00000e+00        0.00000e+00        4.73982e-03 
 79.80        3.82179e+00        -4.95095e-01        0.00000e+00        0.00000e+00        0.00000e+00        4.76548e-03 
 80.50        3.81781e+00        -4.99511e-01        0.00000e+00        0.00000e+00        0.00000e+00        4.79085e-03 
 81.20        3.81379e+00        -5.03905e-01        0.00000e+00        0.00000e+00        0.00000e+00        4.81593e-03 
 81.90        3.80975e+00        -5.08278e-01        0.00000e+00        0.00000e+00        0.00000e+00        4.84073e-03 
 82.60        3.80567e+00        -5.12630e-01        0.00000e+00        0.00000e+00        0.00000e+00        4.86523e-03 
 83.30        3.80156e+00        -5.16959e-01        0.00000e+00        0.00000e+00        0.00000e+00        4.88945e-03 
 84.00        3.79743e+00        -5.21265e-01        0.00000e+00        0.00000e+00        0.00000e+00        4.91338e-03 
 84.70        3.79326e+00        -5.25549e-01        0.00000e+00        0.00000e+00        0.00000e+00        4.93703e-03 
 85.40        3.78907e+00        -5.29810e-01        0.00000e+00        0.00000e+00        0.00000e+00        4.96039e-03 
 86.10        3.78484e+00        -5.34048e-01        0.00000e+00        0.00000e+00        0.00000e+00        4.98346e-03 
 86.80        3.78059e+00        -5.38262e-01        0.00000e+00        0.00000e+00        0.00000e+00        5.00625e-03 
 87.50        3.77630e+00        -5.42451e-01        0.00000e+00        0.00000e+00        0.00000e+00        5.02876e-03 
 88.20        3.77199e+00        -5.46617e-01        0.00000e+00        0.00000e+00        0.00000e+00        5.05098e-03 
 88.90        3.76765e+00        -5.50758e-01        0.00000e+00        0.00000e+00        0.00000e+00        5.07293e-03 
 89.60        3.76327e+00        -5.54874e-01        0.00000e+00        0.00000e+00        0.00000e+00        5.09458e-03 
 90.30        3.75887e+00        -5.58965e-01        0.00000e+00        0.00000e+00        0.00000e+00        5.11596e-03 
 91.00        3.75445e+00        -5.63030e-01        0.00000e+00        0.00000e+00        0.00000e+00        5.13706e-03 
 91.70        3.74999e+00        -5.67070e-01        0.00000e+00        0.00000e+00        0.00000e+00        5.15787e-03 
 92.40        3.74550e+00        -5.71084e-01        0.00000e+00        0.00000e+00        0.00000e+00        5.17841e-03 
 93.10        3.74099e+00        -5.75072e-01        0.00000e+00        0.00000e+00        0.00000e+00        5.19867e-03 
 93.80        3.73645e+00        -5.79034e-01        0.00000e+00        0.00000e+00        0.00000e+00        5.21865e-03 
 94.50        3.73188e+00        -5.82969e-01        0.00000e+00        0.00000e+00        0.00000e+00        5.23836e-03 
 95.20        3.72728e+00        -5.86877e-01        0.00000e+00        0.00000e+00        0.00000e+00        5.25778e-03 
 95.90        3.72266e+00        -5.90759e-01        0.00000e+00        0.00000e+00        0.00000e+00        5.27694e-03 
 96.60        3.71801e+00        -5.94613e-01        0.00000e+00        0.00000e+00        0.00000e+00        5.29582e-03 
 97.30        3.71333e+00        -5.98440e-01        0.00000e+00        0.00000e+00        0.00000e+00        5.31442e-03 
 98.00        3.70862e+00        -6.02239e-01        0.00000e+00        0.00000e+00        0.00000e+00        5.33275e-03 
 98.70        3.70389e+00        -6.06010e-01        0.00000e+00        0.00000e+00        0.00000e+00        5.35081e-03 
 99.40        3.69913e+00        -6.09754e-01        0.00000e+00        0.00000e+00        0.00000e+00        5.36860e-03 
 100.10        3.69435e+00        -6.13470e-01        0.00000e+00        0.00000e+00        0.00000e+00        5.38613e-03 
 100.80        3.68954e+00        -6.17157e-01        0.00000e+00        0.00000e+00        0.00000e+00        5.40338e-03 
 101.50        3.68471e+00        -6.20816e-01        0.00000e+00        0.00000e+00        0.00000e+00        5.42036e-03 
 102.20        3.67985e+00        -6.24446e-01        0.00000e+00        0.00000e+00        0.00000e+00        5.43708e-03 
 102.90        3.67496e+00        -6.28048e-01        0.00000e+00        0.00000e+00        0.00000e+00        5.45353e-03 
 103.60        3.67005e+00        -6.31621e-01        0.00000e+00        0.00000e+00        0.00000e+00        5.46972e-03 
 104.30        3.66511e+00        -6.35165e-01        0.00000e+00        0.00000e+00        0.00000e+00        5.48565e-03 
 105.00        3.66016e+00        -6.38680e-01        0.00000e+00        0.00000e+00        0.00000e+00        5.50131e-03 
 105.70        3.65517e+00        -6.42165e-01        0.00000e+00        0.00000e+00        0.00000e+00        5.51672e-03 
 106.40        3.65017e+00        -6.45622e-01        0.00000e+00        0.00000e+00        0.00000e+00        5.53186e-03 
 107.10        3.64513e+00        -6.49049e-01        0.00000e+00        0.00000e+00        0.00000e+00        5.54675e-03 
 107.80        3.64008e+00        -6.52447e-01        0.00000e+00        0.00000e+00        0.00000e+00        5.56137e-03 
 108.50        3.63500e+00        -6.55815e-01        0.00000e+00        0.00000e+00        0.00000e+00        5.57575e-03 
 109.20        3.62990e+00        -6.59153e-01        0.00000e+00        0.00000e+00        0.00000e+00        5.58986e-03 
 109.90        3.62478e+00        -6.62462e-01        0.00000e+00        0.00000e+00        0.00000e+00        5.60373e-03 
 110.60        3.61964e+00        -6.65741e-01        0.00000e+00        0.00000e+00        0.00000e+00        5.61734e-03 
 111.30        3.61447e+00        -6.68990e-01        0.00000e+00        0.00000e+00        0.00000e+00        5.63070e-03 
 112.00        3.60929e+00        -6.72210e-01        0.00000e+00        0.00000e+00        0.00000e+00        5.64381e-03 
