#Navio B MarAd
#Manobra de Curva Giro
#
#Velocidade Inercial
#
#temp           u           v           r
 0.00        4.11000e+00        0.00000e+00        0.00000e+00 
 0.70        4.11000e+00        8.38019e-05        0.00000e+00 
 1.40        4.11000e+00        1.64067e-04        0.00000e+00 
 2.10        4.10816e+00        -2.68328e-03        0.00000e+00 
 2.80        4.10632e+00        -5.41013e-03        0.00000e+00 
 3.50        4.10448e+00        -8.01701e-03        0.00000e+00 
 4.20        4.10265e+00        -1.05045e-02        0.00000e+00 
 4.90        4.10082e+00        -1.28730e-02        0.00000e+00 
 5.60        4.09899e+00        -1.51231e-02        0.00000e+00 
 6.30        4.09716e+00        -1.72552e-02        0.00000e+00 
 7.00        4.09534e+00        -1.92698e-02        0.00000e+00 
 7.70        4.09352e+00        -2.11674e-02        0.00000e+00 
 8.40        4.09170e+00        -2.29483e-02        0.00000e+00 
 9.10        4.08988e+00        -2.46131e-02        0.00000e+00 
 9.80        4.08806e+00        -2.61621e-02        0.00000e+00 
 10.50        4.08624e+00        -2.75957e-02        0.00000e+00 
 11.20        4.08442e+00        -2.89143e-02        0.00000e+00 
 11.90        4.08261e+00        -3.01183e-02        0.00000e+00 
 12.60        4.08079e+00        -3.12081e-02        0.00000e+00 
 13.30        4.07898e+00        -3.21840e-02        0.00000e+00 
 14.00        4.07716e+00        -3.30464e-02        0.00000e+00 
 14.70        4.07534e+00        -3.37957e-02        0.00000e+00 
 15.40        4.07353e+00        -3.44320e-02        0.00000e+00 
 16.10        4.07171e+00        -3.49559e-02        0.00000e+00 
 16.80        4.06989e+00        -3.53676e-02        0.00000e+00 
 17.50        4.06807e+00        -3.56675e-02        0.00000e+00 
 18.20        4.06625e+00        -3.58558e-02        0.00000e+00 
 18.90        4.06442e+00        -3.59329e-02        0.00000e+00 
 19.60        4.06259e+00        -3.58990e-02        0.00000e+00 
 20.30        4.06076e+00        -3.57545e-02        0.00000e+00 
 21.00        4.05892e+00        -3.54997e-02        0.00000e+00 
 21.70        4.05708e+00        -3.51348e-02        0.00000e+00 
 22.40        4.05524e+00        -3.46602e-02        0.00000e+00 
 23.10        4.05339e+00        -3.40761e-02        0.00000e+00 
 23.80        4.05154e+00        -3.33829e-02        0.00000e+00 
 24.50        4.04968e+00        -3.25808e-02        0.00000e+00 
 25.20        4.04781e+00        -3.16700e-02        0.00000e+00 
 25.90        4.04594e+00        -3.06510e-02        0.00000e+00 
 26.60        4.04406e+00        -2.95240e-02        0.00000e+00 
 27.30        4.04217e+00        -2.82892e-02        0.00000e+00 
 28.00        4.04027e+00        -2.69470e-02        0.00000e+00 
 28.70        4.03837e+00        -2.54976e-02        0.00000e+00 
 29.40        4.03645e+00        -2.39414e-02        0.00000e+00 
 30.10        4.03453e+00        -2.22786e-02        0.00000e+00 
 30.80        4.03259e+00        -2.05096e-02        0.00000e+00 
 31.50        4.03065e+00        -1.86345e-02        0.00000e+00 
 32.20        4.02869e+00        -1.66539e-02        0.00000e+00 
 32.90        4.02673e+00        -1.45678e-02        0.00000e+00 
 33.60        4.02474e+00        -1.23768e-02        0.00000e+00 
 34.30        4.02275e+00        -1.00810e-02        0.00000e+00 
 35.00        4.02074e+00        -7.68087e-03        0.00000e+00 
 35.70        4.01872e+00        -5.17664e-03        0.00000e+00 
 36.40        4.01669e+00        -2.56869e-03        0.00000e+00 
 37.10        4.01464e+00        1.42650e-04        0.00000e+00 
 37.80        4.01257e+00        2.95703e-03        0.00000e+00 
 38.50        4.01049e+00        5.87410e-03        0.00000e+00 
 39.20        4.00839e+00        8.89350e-03        0.00000e+00 
 39.90        4.00627e+00        1.20148e-02        0.00000e+00 
 40.60        4.00413e+00        1.52378e-02        0.00000e+00 
 41.30        4.00198e+00        1.85619e-02        0.00000e+00 
 42.00        3.99980e+00        2.19868e-02        0.00000e+00 
 42.70        3.99761e+00        2.55122e-02        0.00000e+00 
 43.40        3.99539e+00        2.91375e-02        0.00000e+00 
 44.10        3.99316e+00        3.28624e-02        0.00000e+00 
 44.80        3.99090e+00        3.66865e-02        0.00000e+00 
 45.50        3.98862e+00        4.06093e-02        0.00000e+00 
 46.20        3.98631e+00        4.46303e-02        0.00000e+00 
 46.90        3.98399e+00        4.87491e-02        0.00000e+00 
 47.60        3.98163e+00        5.29653e-02        0.00000e+00 
 48.30        3.97926e+00        5.72784e-02        0.00000e+00 
 49.00        3.97685e+00        6.16878e-02        0.00000e+00 
 49.70        3.97442e+00        6.61931e-02        0.00000e+00 
 50.40        3.97196e+00        7.07937e-02        0.00000e+00 
 51.10        3.96948e+00        7.54893e-02        0.00000e+00 
 51.80        3.96697e+00        8.02791e-02        0.00000e+00 
 52.50        3.96442e+00        8.51627e-02        0.00000e+00 
 53.20        3.96185e+00        9.01395e-02        0.00000e+00 
 53.90        3.95925e+00        9.52090e-02        0.00000e+00 
 54.60        3.95662e+00        1.00371e-01        0.00000e+00 
 55.30        3.95395e+00        1.05624e-01        0.00000e+00 
 56.00        3.95125e+00        1.10968e-01        0.00000e+00 
 56.70        3.94852e+00        1.16402e-01        0.00000e+00 
 57.40        3.94576e+00        1.21926e-01        0.00000e+00 
 58.10        3.94296e+00        1.27539e-01        0.00000e+00 
 58.80        3.94013e+00        1.33240e-01        0.00000e+00 
 59.50        3.93726e+00        1.39029e-01        0.00000e+00 
 60.20        3.93436e+00        1.44905e-01        0.00000e+00 
 60.90        3.93142e+00        1.50867e-01        0.00000e+00 
 61.60        3.92844e+00        1.56915e-01        0.00000e+00 
 62.30        3.92542e+00        1.63048e-01        0.00000e+00 
 63.00        3.92237e+00        1.69266e-01        0.00000e+00 
 63.70        3.91927e+00        1.75566e-01        0.00000e+00 
 64.40        3.91614e+00        1.81950e-01        0.00000e+00 
 65.10        3.91297e+00        1.88415e-01        0.00000e+00 
 65.80        3.90975e+00        1.94962e-01        0.00000e+00 
 66.50        3.90649e+00        2.01589e-01        0.00000e+00 
 67.20        3.90320e+00        2.08296e-01        0.00000e+00 
 67.90        3.89985e+00        2.15082e-01        0.00000e+00 
 68.60        3.89647e+00        2.21946e-01        0.00000e+00 
 69.30        3.89304e+00        2.28887e-01        0.00000e+00 
 70.00        3.88957e+00        2.35904e-01        0.00000e+00 
 70.70        3.88605e+00        2.42997e-01        0.00000e+00 
 71.40        3.88249e+00        2.50165e-01        0.00000e+00 
 72.10        3.87888e+00        2.57406e-01        0.00000e+00 
 72.80        3.87522e+00        2.64721e-01        0.00000e+00 
 73.50        3.87152e+00        2.72107e-01        0.00000e+00 
 74.20        3.86777e+00        2.79565e-01        0.00000e+00 
 74.90        3.86397e+00        2.87092e-01        0.00000e+00 
 75.60        3.86012e+00        2.94689e-01        0.00000e+00 
 76.30        3.85622e+00        3.02355e-01        0.00000e+00 
 77.00        3.85228e+00        3.10088e-01        0.00000e+00 
 77.70        3.84828e+00        3.17887e-01        0.00000e+00 
 78.40        3.84423e+00        3.25752e-01        0.00000e+00 
 79.10        3.84013e+00        3.33681e-01        0.00000e+00 
 79.80        3.83598e+00        3.41674e-01        0.00000e+00 
 80.50        3.83178e+00        3.49730e-01        0.00000e+00 
 81.20        3.82753e+00        3.57847e-01        0.00000e+00 
 81.90        3.82322e+00        3.66024e-01        0.00000e+00 
 82.60        3.81886e+00        3.74261e-01        0.00000e+00 
 83.30        3.81444e+00        3.82557e-01        0.00000e+00 
 84.00        3.80998e+00        3.90910e-01        0.00000e+00 
 84.70        3.80545e+00        3.99320e-01        0.00000e+00 
 85.40        3.80088e+00        4.07785e-01        0.00000e+00 
 86.10        3.79625e+00        4.16304e-01        0.00000e+00 
 86.80        3.79156e+00        4.24877e-01        0.00000e+00 
 87.50        3.78681e+00        4.33502e-01        0.00000e+00 
 88.20        3.78201e+00        4.42178e-01        0.00000e+00 
 88.90        3.77716e+00        4.50904e-01        0.00000e+00 
 89.60        3.77225e+00        4.59680e-01        0.00000e+00 
 90.30        3.76728e+00        4.68503e-01        0.00000e+00 
 91.00        3.76225e+00        4.77373e-01        0.00000e+00 
 91.70        3.75717e+00        4.86289e-01        0.00000e+00 
 92.40        3.75202e+00        4.95249e-01        0.00000e+00 
 93.10        3.74682e+00        5.04253e-01        0.00000e+00 
 93.80        3.74157e+00        5.13299e-01        0.00000e+00 
 94.50        3.73625e+00        5.22387e-01        0.00000e+00 
 95.20        3.73087e+00        5.31515e-01        0.00000e+00 
 95.90        3.72544e+00        5.40682e-01        0.00000e+00 
 96.60        3.71995e+00        5.49887e-01        0.00000e+00 
 97.30        3.71440e+00        5.59129e-01        0.00000e+00 
 98.00        3.70878e+00        5.68406e-01        0.00000e+00 
 98.70        3.70311e+00        5.77718e-01        0.00000e+00 
 99.40        3.69738e+00        5.87064e-01        0.00000e+00 
 100.10        3.69159e+00        5.96441e-01        0.00000e+00 
 100.80        3.68574e+00        6.05850e-01        0.00000e+00 
 101.50        3.67983e+00        6.15290e-01        0.00000e+00 
 102.20        3.67386e+00        6.24758e-01        0.00000e+00 
 102.90        3.66783e+00        6.34253e-01        0.00000e+00 
 103.60        3.66174e+00        6.43776e-01        0.00000e+00 
 104.30        3.65559e+00        6.53324e-01        0.00000e+00 
 105.00        3.64938e+00        6.62896e-01        0.00000e+00 
 105.70        3.64311e+00        6.72492e-01        0.00000e+00 
 106.40        3.63678e+00        6.82110e-01        0.00000e+00 
 107.10        3.63039e+00        6.91749e-01        0.00000e+00 
 107.80        3.62394e+00        7.01408e-01        0.00000e+00 
 108.50        3.61743e+00        7.11086e-01        0.00000e+00 
 109.20        3.61086e+00        7.20781e-01        0.00000e+00 
 109.90        3.60423e+00        7.30493e-01        0.00000e+00 
 110.60        3.59754e+00        7.40220e-01        0.00000e+00 
 111.30        3.59079e+00        7.49962e-01        0.00000e+00 
 112.00        3.58398e+00        7.59717e-01        0.00000e+00 
 112.70        3.57711e+00        7.69484e-01        0.00000e+00 
 113.40        3.57018e+00        7.79262e-01        0.00000e+00 
 114.10        3.56319e+00        7.89050e-01        0.00000e+00 
 114.80        3.55615e+00        7.98847e-01        0.00000e+00 
 115.50        3.54904e+00        8.08651e-01        0.00000e+00 
 116.20        3.54188e+00        8.18463e-01        0.00000e+00 
 116.90        3.53465e+00        8.28280e-01        0.00000e+00 
 117.60        3.52737e+00        8.38102e-01        0.00000e+00 
 118.30        3.52003e+00        8.47927e-01        0.00000e+00 
 119.00        3.51263e+00        8.57754e-01        0.00000e+00 
 119.70        3.50517e+00        8.67583e-01        0.00000e+00 
 120.40        3.49766e+00        8.77413e-01        0.00000e+00 
 121.10        3.49009e+00        8.87241e-01        0.00000e+00 
 121.80        3.48246e+00        8.97069e-01        0.00000e+00 
 122.50        3.47477e+00        9.06893e-01        0.00000e+00 
 123.20        3.46703e+00        9.16714e-01        0.00000e+00 
 123.90        3.45923e+00        9.26530e-01        0.00000e+00 
 124.60        3.45138e+00        9.36340e-01        0.00000e+00 
 125.30        3.44347e+00        9.46143e-01        0.00000e+00 
 126.00        3.43551e+00        9.55939e-01        0.00000e+00 
 126.70        3.42749e+00        9.65727e-01        0.00000e+00 
 127.40        3.41941e+00        9.75504e-01        0.00000e+00 
 128.10        3.41128e+00        9.85271e-01        0.00000e+00 
 128.80        3.40310e+00        9.95027e-01        0.00000e+00 
 129.50        3.39486e+00        1.00477e+00        0.00000e+00 
 130.20        3.38657e+00        1.01450e+00        0.00000e+00 
 130.90        3.37823e+00        1.02422e+00        0.00000e+00 
 131.60        3.36984e+00        1.03392e+00        0.00000e+00 
 132.30        3.36139e+00        1.04360e+00        0.00000e+00 
 133.00        3.35289e+00        1.05327e+00        0.00000e+00 
 133.70        3.34434e+00        1.06292e+00        0.00000e+00 
 134.40        3.33574e+00        1.07255e+00        0.00000e+00 
 135.10        3.32709e+00        1.08216e+00        0.00000e+00 
 135.80        3.31839e+00        1.09175e+00        0.00000e+00 
 136.50        3.30963e+00        1.10132e+00        0.00000e+00 
 137.20        3.30083e+00        1.11087e+00        0.00000e+00 
 137.90        3.29199e+00        1.12039e+00        0.00000e+00 
 138.60        3.28309e+00        1.12989e+00        0.00000e+00 
 139.30        3.27414e+00        1.13937e+00        0.00000e+00 
 140.00        3.26515e+00        1.14882e+00        0.00000e+00 
 140.70        3.25611e+00        1.15825e+00        0.00000e+00 
 141.40        3.24703e+00        1.16764e+00        0.00000e+00 
 142.10        3.23790e+00        1.17701e+00        0.00000e+00 
 142.80        3.22872e+00        1.18636e+00        0.00000e+00 
 143.50        3.21950e+00        1.19567e+00        0.00000e+00 
 144.20        3.21024e+00        1.20495e+00        0.00000e+00 
 144.90        3.20093e+00        1.21421e+00        0.00000e+00 
 145.60        3.19158e+00        1.22343e+00        0.00000e+00 
 146.30        3.18218e+00        1.23262e+00        0.00000e+00 
 147.00        3.17274e+00        1.24178e+00        0.00000e+00 
 147.70        3.16326e+00        1.25090e+00        0.00000e+00 
 148.40        3.15374e+00        1.25999e+00        0.00000e+00 
 149.10        3.14418e+00        1.26905e+00        0.00000e+00 
 149.80        3.13458e+00        1.27807e+00        0.00000e+00 
 150.50        3.12494e+00        1.28706e+00        0.00000e+00 
 151.20        3.11526e+00        1.29601e+00        0.00000e+00 
 151.90        3.10554e+00        1.30492e+00        0.00000e+00 
 152.60        3.09579e+00        1.31380e+00        0.00000e+00 
 153.30        3.08599e+00        1.32263e+00        0.00000e+00 
 154.00        3.07616e+00        1.33143e+00        0.00000e+00 
 154.70        3.06630e+00        1.34019e+00        0.00000e+00 
 155.40        3.05640e+00        1.34891e+00        0.00000e+00 
 156.10        3.04646e+00        1.35759e+00        0.00000e+00 
 156.80        3.03649e+00        1.36623e+00        0.00000e+00 
 157.50        3.02648e+00        1.37483e+00        0.00000e+00 
 158.20        3.01644e+00        1.38338e+00        0.00000e+00 
 158.90        3.00637e+00        1.39190e+00        0.00000e+00 
 159.60        2.99627e+00        1.40037e+00        0.00000e+00 
 160.30        2.98613e+00        1.40880e+00        0.00000e+00 
 161.00        2.97596e+00        1.41718e+00        0.00000e+00 
 161.70        2.96576e+00        1.42552e+00        0.00000e+00 
 162.40        2.95554e+00        1.43382e+00        0.00000e+00 
 163.10        2.94528e+00        1.44207e+00        0.00000e+00 
 163.80        2.93499e+00        1.45027e+00        0.00000e+00 
 164.50        2.92468e+00        1.45843e+00        0.00000e+00 
 165.20        2.91433e+00        1.46655e+00        0.00000e+00 
 165.90        2.90396e+00        1.47462e+00        0.00000e+00 
 166.60        2.89357e+00        1.48264e+00        0.00000e+00 
 167.30        2.88315e+00        1.49061e+00        0.00000e+00 
 168.00        2.87270e+00        1.49854e+00        0.00000e+00 
 168.70        2.86223e+00        1.50642e+00        0.00000e+00 
 169.40        2.85173e+00        1.51425e+00        0.00000e+00 
 170.10        2.84121e+00        1.52203e+00        0.00000e+00 
 170.80        2.83066e+00        1.52977e+00        0.00000e+00 
 171.50        2.82010e+00        1.53745e+00        0.00000e+00 
 172.20        2.80951e+00        1.54509e+00        0.00000e+00 
 172.90        2.79890e+00        1.55267e+00        0.00000e+00 
 173.60        2.78827e+00        1.56021e+00        0.00000e+00 
 174.30        2.77762e+00        1.56769e+00        0.00000e+00 
 175.00        2.76695e+00        1.57513e+00        0.00000e+00 
 175.70        2.75626e+00        1.58252e+00        0.00000e+00 
 176.40        2.74555e+00        1.58985e+00        0.00000e+00 
 177.10        2.73482e+00        1.59714e+00        0.00000e+00 
 177.80        2.72408e+00        1.60437e+00        0.00000e+00 
 178.50        2.71331e+00        1.61155e+00        0.00000e+00 
 179.20        2.70254e+00        1.61868e+00        0.00000e+00 
 179.90        2.69174e+00        1.62576e+00        0.00000e+00 
 180.60        2.68093e+00        1.63278e+00        0.00000e+00 
 181.30        2.67011e+00        1.63976e+00        0.00000e+00 
 182.00        2.65927e+00        1.64668e+00        0.00000e+00 
 182.70        2.64842e+00        1.65355e+00        0.00000e+00 
 183.40        2.63755e+00        1.66037e+00        0.00000e+00 
 184.10        2.62667e+00        1.66713e+00        0.00000e+00 
 184.80        2.61578e+00        1.67385e+00        0.00000e+00 
 185.50        2.60488e+00        1.68051e+00        0.00000e+00 
 186.20        2.59397e+00        1.68711e+00        0.00000e+00 
 186.90        2.58304e+00        1.69367e+00        0.00000e+00 
 187.60        2.57211e+00        1.70017e+00        0.00000e+00 
 188.30        2.56116e+00        1.70662e+00        0.00000e+00 
 189.00        2.55021e+00        1.71301e+00        0.00000e+00 
 189.70        2.53925e+00        1.71935e+00        0.00000e+00 
 190.40        2.52828e+00        1.72564e+00        0.00000e+00 
 191.10        2.51730e+00        1.73187e+00        0.00000e+00 
 191.80        2.50632e+00        1.73805e+00        0.00000e+00 
 192.50        2.49533e+00        1.74418e+00        0.00000e+00 
 193.20        2.48433e+00        1.75026e+00        0.00000e+00 
 193.90        2.47333e+00        1.75628e+00        0.00000e+00 
 194.60        2.46232e+00        1.76224e+00        0.00000e+00 
 195.30        2.45130e+00        1.76816e+00        0.00000e+00 
 196.00        2.44029e+00        1.77402e+00        0.00000e+00 
 196.70        2.42927e+00        1.77982e+00        0.00000e+00 
 197.40        2.41824e+00        1.78558e+00        0.00000e+00 
 198.10        2.40722e+00        1.79128e+00        0.00000e+00 
 198.80        2.39619e+00        1.79692e+00        0.00000e+00 
 199.50        2.38515e+00        1.80252e+00        0.00000e+00 
 200.20        2.37412e+00        1.80806e+00        0.00000e+00 
 200.90        2.36309e+00        1.81354e+00        0.00000e+00 
 201.60        2.35205e+00        1.81898e+00        0.00000e+00 
 202.30        2.34102e+00        1.82436e+00        0.00000e+00 
 203.00        2.32998e+00        1.82968e+00        0.00000e+00 
 203.70        2.31895e+00        1.83496e+00        0.00000e+00 
 204.40        2.30792e+00        1.84018e+00        0.00000e+00 
 205.10        2.29689e+00        1.84534e+00        0.00000e+00 
 205.80        2.28586e+00        1.85046e+00        0.00000e+00 
 206.50        2.27483e+00        1.85552e+00        0.00000e+00 
 207.20        2.26381e+00        1.86053e+00        0.00000e+00 
 207.90        2.25279e+00        1.86549e+00        0.00000e+00 
 208.60        2.24177e+00        1.87039e+00        0.00000e+00 
 209.30        2.23075e+00        1.87524e+00        0.00000e+00 
 210.00        2.21975e+00        1.88004e+00        0.00000e+00 
 210.70        2.20874e+00        1.88479e+00        0.00000e+00 
 211.40        2.19774e+00        1.88948e+00        0.00000e+00 
