#Navio B MarAd
#Manobra de Curva Giro
#
#Velocidade Sistema Solidário 
#
#temp           u           v           w    dot roll   dot pitch     dot yaw 
 0.00        4.11000e+00        0.00000e+00        0.00000e+00        0.00000e+00        0.00000e+00        0.00000e+00 
 0.70        4.11000e+00        8.64911e-05        0.00000e+00        0.00000e+00        0.00000e+00        -1.86174e-06 
 1.40        4.11000e+00        1.74794e-04        0.00000e+00        0.00000e+00        0.00000e+00        -3.70475e-06 
 2.10        4.10816e+00        -2.75224e-03        0.00000e+00        0.00000e+00        0.00000e+00        5.88917e-05 
 2.80        4.10632e+00        -5.73834e-03        0.00000e+00        0.00000e+00        0.00000e+00        1.20826e-04 
 3.50        4.10448e+00        -8.78224e-03        0.00000e+00        0.00000e+00        0.00000e+00        1.82110e-04 
 4.20        4.10265e+00        -1.18827e-02        0.00000e+00        0.00000e+00        0.00000e+00        2.42755e-04 
 4.90        4.10081e+00        -1.50386e-02        0.00000e+00        0.00000e+00        0.00000e+00        3.02773e-04 
 5.60        4.09898e+00        -1.82485e-02        0.00000e+00        0.00000e+00        0.00000e+00        3.62174e-04 
 6.30        4.09714e+00        -2.15115e-02        0.00000e+00        0.00000e+00        0.00000e+00        4.20968e-04 
 7.00        4.09531e+00        -2.48262e-02        0.00000e+00        0.00000e+00        0.00000e+00        4.79166e-04 
 7.70        4.09348e+00        -2.81916e-02        0.00000e+00        0.00000e+00        0.00000e+00        5.36779e-04 
 8.40        4.09164e+00        -3.16065e-02        0.00000e+00        0.00000e+00        0.00000e+00        5.93815e-04 
 9.10        4.08980e+00        -3.50698e-02        0.00000e+00        0.00000e+00        0.00000e+00        6.50284e-04 
 9.80        4.08796e+00        -3.85803e-02        0.00000e+00        0.00000e+00        0.00000e+00        7.06196e-04 
 10.50        4.08612e+00        -4.21370e-02        0.00000e+00        0.00000e+00        0.00000e+00        7.61559e-04 
 11.20        4.08427e+00        -4.57387e-02        0.00000e+00        0.00000e+00        0.00000e+00        8.16383e-04 
 11.90        4.08242e+00        -4.93845e-02        0.00000e+00        0.00000e+00        0.00000e+00        8.70674e-04 
 12.60        4.08057e+00        -5.30731e-02        0.00000e+00        0.00000e+00        0.00000e+00        9.24443e-04 
 13.30        4.07871e+00        -5.68037e-02        0.00000e+00        0.00000e+00        0.00000e+00        9.77696e-04 
 14.00        4.07685e+00        -6.05751e-02        0.00000e+00        0.00000e+00        0.00000e+00        1.03044e-03 
 14.70        4.07498e+00        -6.43863e-02        0.00000e+00        0.00000e+00        0.00000e+00        1.08269e-03 
 15.40        4.07311e+00        -6.82363e-02        0.00000e+00        0.00000e+00        0.00000e+00        1.13444e-03 
 16.10        4.07123e+00        -7.21241e-02        0.00000e+00        0.00000e+00        0.00000e+00        1.18571e-03 
 16.80        4.06935e+00        -7.60487e-02        0.00000e+00        0.00000e+00        0.00000e+00        1.23650e-03 
 17.50        4.06746e+00        -8.00091e-02        0.00000e+00        0.00000e+00        0.00000e+00        1.28681e-03 
 18.20        4.06556e+00        -8.40043e-02        0.00000e+00        0.00000e+00        0.00000e+00        1.33667e-03 
 18.90        4.06365e+00        -8.80335e-02        0.00000e+00        0.00000e+00        0.00000e+00        1.38606e-03 
 19.60        4.06173e+00        -9.20955e-02        0.00000e+00        0.00000e+00        0.00000e+00        1.43500e-03 
 20.30        4.05981e+00        -9.61896e-02        0.00000e+00        0.00000e+00        0.00000e+00        1.48349e-03 
 21.00        4.05788e+00        -1.00315e-01        0.00000e+00        0.00000e+00        0.00000e+00        1.53154e-03 
 21.70        4.05593e+00        -1.04470e-01        0.00000e+00        0.00000e+00        0.00000e+00        1.57916e-03 
 22.40        4.05398e+00        -1.08655e-01        0.00000e+00        0.00000e+00        0.00000e+00        1.62635e-03 
 23.10        4.05202e+00        -1.12867e-01        0.00000e+00        0.00000e+00        0.00000e+00        1.67311e-03 
 23.80        4.05005e+00        -1.17108e-01        0.00000e+00        0.00000e+00        0.00000e+00        1.71945e-03 
 24.50        4.04806e+00        -1.21374e-01        0.00000e+00        0.00000e+00        0.00000e+00        1.76538e-03 
 25.20        4.04607e+00        -1.25667e-01        0.00000e+00        0.00000e+00        0.00000e+00        1.81090e-03 
 25.90        4.04406e+00        -1.29984e-01        0.00000e+00        0.00000e+00        0.00000e+00        1.85601e-03 
 26.60        4.04204e+00        -1.34325e-01        0.00000e+00        0.00000e+00        0.00000e+00        1.90073e-03 
 27.30        4.04000e+00        -1.38690e-01        0.00000e+00        0.00000e+00        0.00000e+00        1.94504e-03 
 28.00        4.03796e+00        -1.43076e-01        0.00000e+00        0.00000e+00        0.00000e+00        1.98897e-03 
 28.70        4.03590e+00        -1.47484e-01        0.00000e+00        0.00000e+00        0.00000e+00        2.03251e-03 
 29.40        4.03383e+00        -1.51913e-01        0.00000e+00        0.00000e+00        0.00000e+00        2.07566e-03 
 30.10        4.03174e+00        -1.56361e-01        0.00000e+00        0.00000e+00        0.00000e+00        2.11843e-03 
 30.80        4.02964e+00        -1.60828e-01        0.00000e+00        0.00000e+00        0.00000e+00        2.16083e-03 
 31.50        4.02752e+00        -1.65314e-01        0.00000e+00        0.00000e+00        0.00000e+00        2.20286e-03 
 32.20        4.02539e+00        -1.69817e-01        0.00000e+00        0.00000e+00        0.00000e+00        2.24452e-03 
 32.90        4.02324e+00        -1.74336e-01        0.00000e+00        0.00000e+00        0.00000e+00        2.28581e-03 
 33.60        4.02108e+00        -1.78871e-01        0.00000e+00        0.00000e+00        0.00000e+00        2.32674e-03 
 34.30        4.01890e+00        -1.83422e-01        0.00000e+00        0.00000e+00        0.00000e+00        2.36732e-03 
 35.00        4.01670e+00        -1.87986e-01        0.00000e+00        0.00000e+00        0.00000e+00        2.40753e-03 
 35.70        4.01448e+00        -1.92564e-01        0.00000e+00        0.00000e+00        0.00000e+00        2.44740e-03 
 36.40        4.01225e+00        -1.97155e-01        0.00000e+00        0.00000e+00        0.00000e+00        2.48692e-03 
 37.10        4.01000e+00        -2.01758e-01        0.00000e+00        0.00000e+00        0.00000e+00        2.52609e-03 
 37.80        4.00774e+00        -2.06372e-01        0.00000e+00        0.00000e+00        0.00000e+00        2.56491e-03 
 38.50        4.00545e+00        -2.10997e-01        0.00000e+00        0.00000e+00        0.00000e+00        2.60340e-03 
 39.20        4.00315e+00        -2.15631e-01        0.00000e+00        0.00000e+00        0.00000e+00        2.64154e-03 
 39.90        4.00082e+00        -2.20275e-01        0.00000e+00        0.00000e+00        0.00000e+00        2.67936e-03 
 40.60        3.99848e+00        -2.24927e-01        0.00000e+00        0.00000e+00        0.00000e+00        2.71683e-03 
 41.30        3.99612e+00        -2.29587e-01        0.00000e+00        0.00000e+00        0.00000e+00        2.75398e-03 
 42.00        3.99374e+00        -2.34254e-01        0.00000e+00        0.00000e+00        0.00000e+00        2.79080e-03 
 42.70        3.99134e+00        -2.38928e-01        0.00000e+00        0.00000e+00        0.00000e+00        2.82729e-03 
 43.40        3.98891e+00        -2.43607e-01        0.00000e+00        0.00000e+00        0.00000e+00        2.86346e-03 
 44.10        3.98647e+00        -2.48291e-01        0.00000e+00        0.00000e+00        0.00000e+00        2.89930e-03 
 44.80        3.98401e+00        -2.52980e-01        0.00000e+00        0.00000e+00        0.00000e+00        2.93483e-03 
 45.50        3.98152e+00        -2.57672e-01        0.00000e+00        0.00000e+00        0.00000e+00        2.97004e-03 
 46.20        3.97902e+00        -2.62368e-01        0.00000e+00        0.00000e+00        0.00000e+00        3.00493e-03 
 46.90        3.97649e+00        -2.67065e-01        0.00000e+00        0.00000e+00        0.00000e+00        3.03951e-03 
 47.60        3.97394e+00        -2.71765e-01        0.00000e+00        0.00000e+00        0.00000e+00        3.07377e-03 
 48.30        3.97137e+00        -2.76466e-01        0.00000e+00        0.00000e+00        0.00000e+00        3.10773e-03 
 49.00        3.96877e+00        -2.81167e-01        0.00000e+00        0.00000e+00        0.00000e+00        3.14137e-03 
 49.70        3.96616e+00        -2.85869e-01        0.00000e+00        0.00000e+00        0.00000e+00        3.17471e-03 
 50.40        3.96352e+00        -2.90569e-01        0.00000e+00        0.00000e+00        0.00000e+00        3.20774e-03 
 51.10        3.96086e+00        -2.95269e-01        0.00000e+00        0.00000e+00        0.00000e+00        3.24047e-03 
 51.80        3.95817e+00        -2.99967e-01        0.00000e+00        0.00000e+00        0.00000e+00        3.27290e-03 
 52.50        3.95546e+00        -3.04662e-01        0.00000e+00        0.00000e+00        0.00000e+00        3.30503e-03 
 53.20        3.95273e+00        -3.09354e-01        0.00000e+00        0.00000e+00        0.00000e+00        3.33686e-03 
 53.90        3.94998e+00        -3.14043e-01        0.00000e+00        0.00000e+00        0.00000e+00        3.36839e-03 
 54.60        3.94720e+00        -3.18728e-01        0.00000e+00        0.00000e+00        0.00000e+00        3.39962e-03 
 55.30        3.94439e+00        -3.23408e-01        0.00000e+00        0.00000e+00        0.00000e+00        3.43056e-03 
 56.00        3.94157e+00        -3.28083e-01        0.00000e+00        0.00000e+00        0.00000e+00        3.46120e-03 
 56.70        3.93872e+00        -3.32752e-01        0.00000e+00        0.00000e+00        0.00000e+00        3.49155e-03 
 57.40        3.93584e+00        -3.37414e-01        0.00000e+00        0.00000e+00        0.00000e+00        3.52161e-03 
 58.10        3.93294e+00        -3.42070e-01        0.00000e+00        0.00000e+00        0.00000e+00        3.55139e-03 
 58.80        3.93001e+00        -3.46719e-01        0.00000e+00        0.00000e+00        0.00000e+00        3.58087e-03 
 59.50        3.92706e+00        -3.51360e-01        0.00000e+00        0.00000e+00        0.00000e+00        3.61006e-03 
 60.20        3.92409e+00        -3.55992e-01        0.00000e+00        0.00000e+00        0.00000e+00        3.63897e-03 
 60.90        3.92109e+00        -3.60616e-01        0.00000e+00        0.00000e+00        0.00000e+00        3.66760e-03 
 61.60        3.91806e+00        -3.65230e-01        0.00000e+00        0.00000e+00        0.00000e+00        3.69594e-03 
 62.30        3.91501e+00        -3.69835e-01        0.00000e+00        0.00000e+00        0.00000e+00        3.72400e-03 
 63.00        3.91194e+00        -3.74429e-01        0.00000e+00        0.00000e+00        0.00000e+00        3.75178e-03 
 63.70        3.90884e+00        -3.79012e-01        0.00000e+00        0.00000e+00        0.00000e+00        3.77927e-03 
 64.40        3.90571e+00        -3.83585e-01        0.00000e+00        0.00000e+00        0.00000e+00        3.80649e-03 
 65.10        3.90256e+00        -3.88145e-01        0.00000e+00        0.00000e+00        0.00000e+00        3.83343e-03 
 65.80        3.89938e+00        -3.92694e-01        0.00000e+00        0.00000e+00        0.00000e+00        3.86009e-03 
 66.50        3.89618e+00        -3.97229e-01        0.00000e+00        0.00000e+00        0.00000e+00        3.88648e-03 
 67.20        3.89295e+00        -4.01752e-01        0.00000e+00        0.00000e+00        0.00000e+00        3.91259e-03 
 67.90        3.88969e+00        -4.06262e-01        0.00000e+00        0.00000e+00        0.00000e+00        3.93843e-03 
 68.60        3.88641e+00        -4.10757e-01        0.00000e+00        0.00000e+00        0.00000e+00        3.96399e-03 
 69.30        3.88311e+00        -4.15239e-01        0.00000e+00        0.00000e+00        0.00000e+00        3.98928e-03 
 70.00        3.87978e+00        -4.19705e-01        0.00000e+00        0.00000e+00        0.00000e+00        4.01430e-03 
 70.70        3.87642e+00        -4.24157e-01        0.00000e+00        0.00000e+00        0.00000e+00        4.03906e-03 
 71.40        3.87303e+00        -4.28593e-01        0.00000e+00        0.00000e+00        0.00000e+00        4.06354e-03 
 72.10        3.86963e+00        -4.33014e-01        0.00000e+00        0.00000e+00        0.00000e+00        4.08776e-03 
 72.80        3.86619e+00        -4.37418e-01        0.00000e+00        0.00000e+00        0.00000e+00        4.11170e-03 
 73.50        3.86273e+00        -4.41805e-01        0.00000e+00        0.00000e+00        0.00000e+00        4.13539e-03 
 74.20        3.85924e+00        -4.46176e-01        0.00000e+00        0.00000e+00        0.00000e+00        4.15881e-03 
 74.90        3.85573e+00        -4.50529e-01        0.00000e+00        0.00000e+00        0.00000e+00        4.18196e-03 
 75.60        3.85219e+00        -4.54865e-01        0.00000e+00        0.00000e+00        0.00000e+00        4.20485e-03 
 76.30        3.84863e+00        -4.59183e-01        0.00000e+00        0.00000e+00        0.00000e+00        4.22748e-03 
 77.00        3.84504e+00        -4.63482e-01        0.00000e+00        0.00000e+00        0.00000e+00        4.24985e-03 
 77.70        3.84142e+00        -4.67763e-01        0.00000e+00        0.00000e+00        0.00000e+00        4.27196e-03 
 78.40        3.83778e+00        -4.72024e-01        0.00000e+00        0.00000e+00        0.00000e+00        4.29381e-03 
 79.10        3.83412e+00        -4.76267e-01        0.00000e+00        0.00000e+00        0.00000e+00        4.31541e-03 
 79.80        3.83042e+00        -4.80489e-01        0.00000e+00        0.00000e+00        0.00000e+00        4.33674e-03 
 80.50        3.82671e+00        -4.84692e-01        0.00000e+00        0.00000e+00        0.00000e+00        4.35782e-03 
 81.20        3.82297e+00        -4.88875e-01        0.00000e+00        0.00000e+00        0.00000e+00        4.37865e-03 
 81.90        3.81920e+00        -4.93037e-01        0.00000e+00        0.00000e+00        0.00000e+00        4.39922e-03 
 82.60        3.81540e+00        -4.97178e-01        0.00000e+00        0.00000e+00        0.00000e+00        4.41954e-03 
 83.30        3.81159e+00        -5.01298e-01        0.00000e+00        0.00000e+00        0.00000e+00        4.43961e-03 
 84.00        3.80774e+00        -5.05397e-01        0.00000e+00        0.00000e+00        0.00000e+00        4.45943e-03 
 84.70        3.80388e+00        -5.09475e-01        0.00000e+00        0.00000e+00        0.00000e+00        4.47900e-03 
 85.40        3.79998e+00        -5.13530e-01        0.00000e+00        0.00000e+00        0.00000e+00        4.49832e-03 
 86.10        3.79607e+00        -5.17564e-01        0.00000e+00        0.00000e+00        0.00000e+00        4.51739e-03 
 86.80        3.79213e+00        -5.21575e-01        0.00000e+00        0.00000e+00        0.00000e+00        4.53622e-03 
 87.50        3.78816e+00        -5.25563e-01        0.00000e+00        0.00000e+00        0.00000e+00        4.55480e-03 
 88.20        3.78417e+00        -5.29529e-01        0.00000e+00        0.00000e+00        0.00000e+00        4.57313e-03 
 88.90        3.78015e+00        -5.33471e-01        0.00000e+00        0.00000e+00        0.00000e+00        4.59123e-03 
 89.60        3.77612e+00        -5.37391e-01        0.00000e+00        0.00000e+00        0.00000e+00        4.60908e-03 
 90.30        3.77205e+00        -5.41287e-01        0.00000e+00        0.00000e+00        0.00000e+00        4.62669e-03 
 91.00        3.76797e+00        -5.45159e-01        0.00000e+00        0.00000e+00        0.00000e+00        4.64406e-03 
 91.70        3.76386e+00        -5.49008e-01        0.00000e+00        0.00000e+00        0.00000e+00        4.66120e-03 
 92.40        3.75972e+00        -5.52832e-01        0.00000e+00        0.00000e+00        0.00000e+00        4.67809e-03 
 93.10        3.75557e+00        -5.56632e-01        0.00000e+00        0.00000e+00        0.00000e+00        4.69475e-03 
 93.80        3.75139e+00        -5.60408e-01        0.00000e+00        0.00000e+00        0.00000e+00        4.71117e-03 
 94.50        3.74719e+00        -5.64159e-01        0.00000e+00        0.00000e+00        0.00000e+00        4.72736e-03 
 95.20        3.74296e+00        -5.67886e-01        0.00000e+00        0.00000e+00        0.00000e+00        4.74332e-03 
 95.90        3.73871e+00        -5.71587e-01        0.00000e+00        0.00000e+00        0.00000e+00        4.75905e-03 
 96.60        3.73444e+00        -5.75264e-01        0.00000e+00        0.00000e+00        0.00000e+00        4.77454e-03 
 97.30        3.73015e+00        -5.78915e-01        0.00000e+00        0.00000e+00        0.00000e+00        4.78981e-03 
 98.00        3.72584e+00        -5.82541e-01        0.00000e+00        0.00000e+00        0.00000e+00        4.80484e-03 
 98.70        3.72150e+00        -5.86141e-01        0.00000e+00        0.00000e+00        0.00000e+00        4.81965e-03 
 99.40        3.71714e+00        -5.89716e-01        0.00000e+00        0.00000e+00        0.00000e+00        4.83424e-03 
 100.10        3.71276e+00        -5.93265e-01        0.00000e+00        0.00000e+00        0.00000e+00        4.84860e-03 
 100.80        3.70836e+00        -5.96788e-01        0.00000e+00        0.00000e+00        0.00000e+00        4.86273e-03 
 101.50        3.70394e+00        -6.00286e-01        0.00000e+00        0.00000e+00        0.00000e+00        4.87665e-03 
 102.20        3.69949e+00        -6.03757e-01        0.00000e+00        0.00000e+00        0.00000e+00        4.89034e-03 
 102.90        3.69503e+00        -6.07202e-01        0.00000e+00        0.00000e+00        0.00000e+00        4.90381e-03 
 103.60        3.69055e+00        -6.10620e-01        0.00000e+00        0.00000e+00        0.00000e+00        4.91707e-03 
 104.30        3.68604e+00        -6.14012e-01        0.00000e+00        0.00000e+00        0.00000e+00        4.93011e-03 
 105.00        3.68152e+00        -6.17378e-01        0.00000e+00        0.00000e+00        0.00000e+00        4.94293e-03 
 105.70        3.67697e+00        -6.20717e-01        0.00000e+00        0.00000e+00        0.00000e+00        4.95554e-03 
 106.40        3.67241e+00        -6.24030e-01        0.00000e+00        0.00000e+00        0.00000e+00        4.96793e-03 
 107.10        3.66782e+00        -6.27315e-01        0.00000e+00        0.00000e+00        0.00000e+00        4.98011e-03 
 107.80        3.66322e+00        -6.30575e-01        0.00000e+00        0.00000e+00        0.00000e+00        4.99209e-03 
 108.50        3.65860e+00        -6.33807e-01        0.00000e+00        0.00000e+00        0.00000e+00        5.00385e-03 
 109.20        3.65396e+00        -6.37012e-01        0.00000e+00        0.00000e+00        0.00000e+00        5.01540e-03 
 109.90        3.64930e+00        -6.40190e-01        0.00000e+00        0.00000e+00        0.00000e+00        5.02675e-03 
 110.60        3.64462e+00        -6.43342e-01        0.00000e+00        0.00000e+00        0.00000e+00        5.03789e-03 
 111.30        3.63993e+00        -6.46466e-01        0.00000e+00        0.00000e+00        0.00000e+00        5.04883e-03 
 112.00        3.63521e+00        -6.49563e-01        0.00000e+00        0.00000e+00        0.00000e+00        5.05957e-03 
