#Navio B MarAd
#Manobra de Curva Giro
#
#Velocidade Sistema Solidário 
#
#temp           u           v           w    dot roll   dot pitch     dot yaw 
 0.00        4.11000e+00        0.00000e+00        0.00000e+00        0.00000e+00        0.00000e+00        0.00000e+00 
 0.70        4.11000e+00        1.02530e-04        0.00000e+00        0.00000e+00        0.00000e+00        -1.86590e-06 
 1.40        4.11000e+00        2.06850e-04        0.00000e+00        0.00000e+00        0.00000e+00        -3.71901e-06 
 2.10        4.10816e+00        -2.70444e-03        0.00000e+00        0.00000e+00        0.00000e+00        5.89399e-05 
 2.80        4.10632e+00        -5.67539e-03        0.00000e+00        0.00000e+00        0.00000e+00        1.21086e-04 
 3.50        4.10448e+00        -8.70489e-03        0.00000e+00        0.00000e+00        0.00000e+00        1.82726e-04 
 4.20        4.10265e+00        -1.17918e-02        0.00000e+00        0.00000e+00        0.00000e+00        2.43871e-04 
 4.90        4.10081e+00        -1.49351e-02        0.00000e+00        0.00000e+00        0.00000e+00        3.04527e-04 
 5.60        4.09898e+00        -1.81336e-02        0.00000e+00        0.00000e+00        0.00000e+00        3.64702e-04 
 6.30        4.09714e+00        -2.13862e-02        0.00000e+00        0.00000e+00        0.00000e+00        4.24404e-04 
 7.00        4.09531e+00        -2.46920e-02        0.00000e+00        0.00000e+00        0.00000e+00        4.83640e-04 
 7.70        4.09347e+00        -2.80498e-02        0.00000e+00        0.00000e+00        0.00000e+00        5.42418e-04 
 8.40        4.09164e+00        -3.14585e-02        0.00000e+00        0.00000e+00        0.00000e+00        6.00744e-04 
 9.10        4.08980e+00        -3.49172e-02        0.00000e+00        0.00000e+00        0.00000e+00        6.58625e-04 
 9.80        4.08796e+00        -3.84248e-02        0.00000e+00        0.00000e+00        0.00000e+00        7.16067e-04 
 10.50        4.08612e+00        -4.19802e-02        0.00000e+00        0.00000e+00        0.00000e+00        7.73077e-04 
 11.20        4.08427e+00        -4.55825e-02        0.00000e+00        0.00000e+00        0.00000e+00        8.29661e-04 
 11.90        4.08242e+00        -4.92307e-02        0.00000e+00        0.00000e+00        0.00000e+00        8.85824e-04 
 12.60        4.08057e+00        -5.29237e-02        0.00000e+00        0.00000e+00        0.00000e+00        9.41572e-04 
 13.30        4.07871e+00        -5.66605e-02        0.00000e+00        0.00000e+00        0.00000e+00        9.96910e-04 
 14.00        4.07685e+00        -6.04402e-02        0.00000e+00        0.00000e+00        0.00000e+00        1.05184e-03 
 14.70        4.07498e+00        -6.42617e-02        0.00000e+00        0.00000e+00        0.00000e+00        1.10638e-03 
 15.40        4.07310e+00        -6.81242e-02        0.00000e+00        0.00000e+00        0.00000e+00        1.16052e-03 
 16.10        4.07122e+00        -7.20266e-02        0.00000e+00        0.00000e+00        0.00000e+00        1.21427e-03 
 16.80        4.06933e+00        -7.59680e-02        0.00000e+00        0.00000e+00        0.00000e+00        1.26764e-03 
 17.50        4.06744e+00        -7.99475e-02        0.00000e+00        0.00000e+00        0.00000e+00        1.32062e-03 
 18.20        4.06554e+00        -8.39640e-02        0.00000e+00        0.00000e+00        0.00000e+00        1.37323e-03 
 18.90        4.06363e+00        -8.80167e-02        0.00000e+00        0.00000e+00        0.00000e+00        1.42547e-03 
 19.60        4.06171e+00        -9.21046e-02        0.00000e+00        0.00000e+00        0.00000e+00        1.47734e-03 
 20.30        4.05978e+00        -9.62267e-02        0.00000e+00        0.00000e+00        0.00000e+00        1.52885e-03 
 21.00        4.05784e+00        -1.00382e-01        0.00000e+00        0.00000e+00        0.00000e+00        1.57999e-03 
 21.70        4.05589e+00        -1.04570e-01        0.00000e+00        0.00000e+00        0.00000e+00        1.63077e-03 
 22.40        4.05393e+00        -1.08790e-01        0.00000e+00        0.00000e+00        0.00000e+00        1.68121e-03 
 23.10        4.05196e+00        -1.13040e-01        0.00000e+00        0.00000e+00        0.00000e+00        1.73129e-03 
 23.80        4.04998e+00        -1.17320e-01        0.00000e+00        0.00000e+00        0.00000e+00        1.78102e-03 
 24.50        4.04799e+00        -1.21629e-01        0.00000e+00        0.00000e+00        0.00000e+00        1.83041e-03 
 25.20        4.04598e+00        -1.25966e-01        0.00000e+00        0.00000e+00        0.00000e+00        1.87946e-03 
 25.90        4.04397e+00        -1.30330e-01        0.00000e+00        0.00000e+00        0.00000e+00        1.92816e-03 
 26.60        4.04193e+00        -1.34720e-01        0.00000e+00        0.00000e+00        0.00000e+00        1.97653e-03 
 27.30        4.03989e+00        -1.39136e-01        0.00000e+00        0.00000e+00        0.00000e+00        2.02457e-03 
 28.00        4.03783e+00        -1.43576e-01        0.00000e+00        0.00000e+00        0.00000e+00        2.07227e-03 
 28.70        4.03575e+00        -1.48040e-01        0.00000e+00        0.00000e+00        0.00000e+00        2.11965e-03 
 29.40        4.03367e+00        -1.52526e-01        0.00000e+00        0.00000e+00        0.00000e+00        2.16670e-03 
 30.10        4.03156e+00        -1.57035e-01        0.00000e+00        0.00000e+00        0.00000e+00        2.21342e-03 
 30.80        4.02944e+00        -1.61564e-01        0.00000e+00        0.00000e+00        0.00000e+00        2.25982e-03 
 31.50        4.02730e+00        -1.66114e-01        0.00000e+00        0.00000e+00        0.00000e+00        2.30589e-03 
 32.20        4.02515e+00        -1.70684e-01        0.00000e+00        0.00000e+00        0.00000e+00        2.35165e-03 
 32.90        4.02298e+00        -1.75272e-01        0.00000e+00        0.00000e+00        0.00000e+00        2.39709e-03 
 33.60        4.02079e+00        -1.79878e-01        0.00000e+00        0.00000e+00        0.00000e+00        2.44221e-03 
 34.30        4.01858e+00        -1.84501e-01        0.00000e+00        0.00000e+00        0.00000e+00        2.48702e-03 
 35.00        4.01636e+00        -1.89140e-01        0.00000e+00        0.00000e+00        0.00000e+00        2.53151e-03 
 35.70        4.01412e+00        -1.93795e-01        0.00000e+00        0.00000e+00        0.00000e+00        2.57569e-03 
 36.40        4.01185e+00        -1.98464e-01        0.00000e+00        0.00000e+00        0.00000e+00        2.61956e-03 
 37.10        4.00957e+00        -2.03147e-01        0.00000e+00        0.00000e+00        0.00000e+00        2.66312e-03 
 37.80        4.00727e+00        -2.07844e-01        0.00000e+00        0.00000e+00        0.00000e+00        2.70638e-03 
 38.50        4.00495e+00        -2.12552e-01        0.00000e+00        0.00000e+00        0.00000e+00        2.74932e-03 
 39.20        4.00260e+00        -2.17272e-01        0.00000e+00        0.00000e+00        0.00000e+00        2.79196e-03 
 39.90        4.00024e+00        -2.22003e-01        0.00000e+00        0.00000e+00        0.00000e+00        2.83429e-03 
 40.60        3.99785e+00        -2.26744e-01        0.00000e+00        0.00000e+00        0.00000e+00        2.87632e-03 
 41.30        3.99544e+00        -2.31494e-01        0.00000e+00        0.00000e+00        0.00000e+00        2.91804e-03 
 42.00        3.99301e+00        -2.36252e-01        0.00000e+00        0.00000e+00        0.00000e+00        2.95946e-03 
 42.70        3.99056e+00        -2.41019e-01        0.00000e+00        0.00000e+00        0.00000e+00        3.00058e-03 
 43.40        3.98809e+00        -2.45792e-01        0.00000e+00        0.00000e+00        0.00000e+00        3.04140e-03 
 44.10        3.98559e+00        -2.50572e-01        0.00000e+00        0.00000e+00        0.00000e+00        3.08191e-03 
 44.80        3.98307e+00        -2.55357e-01        0.00000e+00        0.00000e+00        0.00000e+00        3.12213e-03 
 45.50        3.98052e+00        -2.60147e-01        0.00000e+00        0.00000e+00        0.00000e+00        3.16204e-03 
 46.20        3.97795e+00        -2.64942e-01        0.00000e+00        0.00000e+00        0.00000e+00        3.20166e-03 
 46.90        3.97536e+00        -2.69739e-01        0.00000e+00        0.00000e+00        0.00000e+00        3.24098e-03 
 47.60        3.97274e+00        -2.74540e-01        0.00000e+00        0.00000e+00        0.00000e+00        3.28000e-03 
 48.30        3.97010e+00        -2.79343e-01        0.00000e+00        0.00000e+00        0.00000e+00        3.31872e-03 
 49.00        3.96743e+00        -2.84147e-01        0.00000e+00        0.00000e+00        0.00000e+00        3.35714e-03 
 49.70        3.96473e+00        -2.88951e-01        0.00000e+00        0.00000e+00        0.00000e+00        3.39526e-03 
 50.40        3.96201e+00        -2.93756e-01        0.00000e+00        0.00000e+00        0.00000e+00        3.43309e-03 
 51.10        3.95927e+00        -2.98560e-01        0.00000e+00        0.00000e+00        0.00000e+00        3.47062e-03 
 51.80        3.95650e+00        -3.03363e-01        0.00000e+00        0.00000e+00        0.00000e+00        3.50786e-03 
 52.50        3.95370e+00        -3.08164e-01        0.00000e+00        0.00000e+00        0.00000e+00        3.54480e-03 
 53.20        3.95087e+00        -3.12962e-01        0.00000e+00        0.00000e+00        0.00000e+00        3.58144e-03 
 53.90        3.94802e+00        -3.17757e-01        0.00000e+00        0.00000e+00        0.00000e+00        3.61778e-03 
 54.60        3.94514e+00        -3.22548e-01        0.00000e+00        0.00000e+00        0.00000e+00        3.65384e-03 
 55.30        3.94223e+00        -3.27335e-01        0.00000e+00        0.00000e+00        0.00000e+00        3.68959e-03 
 56.00        3.93930e+00        -3.32116e-01        0.00000e+00        0.00000e+00        0.00000e+00        3.72505e-03 
 56.70        3.93634e+00        -3.36892e-01        0.00000e+00        0.00000e+00        0.00000e+00        3.76021e-03 
 57.40        3.93334e+00        -3.41662e-01        0.00000e+00        0.00000e+00        0.00000e+00        3.79508e-03 
 58.10        3.93033e+00        -3.46424e-01        0.00000e+00        0.00000e+00        0.00000e+00        3.82966e-03 
 58.80        3.92728e+00        -3.51179e-01        0.00000e+00        0.00000e+00        0.00000e+00        3.86394e-03 
 59.50        3.92420e+00        -3.55926e-01        0.00000e+00        0.00000e+00        0.00000e+00        3.89792e-03 
 60.20        3.92110e+00        -3.60665e-01        0.00000e+00        0.00000e+00        0.00000e+00        3.93161e-03 
 60.90        3.91797e+00        -3.65394e-01        0.00000e+00        0.00000e+00        0.00000e+00        3.96500e-03 
 61.60        3.91480e+00        -3.70113e-01        0.00000e+00        0.00000e+00        0.00000e+00        3.99811e-03 
 62.30        3.91161e+00        -3.74822e-01        0.00000e+00        0.00000e+00        0.00000e+00        4.03091e-03 
 63.00        3.90839e+00        -3.79520e-01        0.00000e+00        0.00000e+00        0.00000e+00        4.06342e-03 
 63.70        3.90514e+00        -3.84207e-01        0.00000e+00        0.00000e+00        0.00000e+00        4.09564e-03 
 64.40        3.90186e+00        -3.88881e-01        0.00000e+00        0.00000e+00        0.00000e+00        4.12756e-03 
 65.10        3.89855e+00        -3.93544e-01        0.00000e+00        0.00000e+00        0.00000e+00        4.15919e-03 
 65.80        3.89521e+00        -3.98193e-01        0.00000e+00        0.00000e+00        0.00000e+00        4.19053e-03 
 66.50        3.89185e+00        -4.02828e-01        0.00000e+00        0.00000e+00        0.00000e+00        4.22157e-03 
 67.20        3.88845e+00        -4.07450e-01        0.00000e+00        0.00000e+00        0.00000e+00        4.25232e-03 
 67.90        3.88502e+00        -4.12057e-01        0.00000e+00        0.00000e+00        0.00000e+00        4.28277e-03 
 68.60        3.88156e+00        -4.16649e-01        0.00000e+00        0.00000e+00        0.00000e+00        4.31293e-03 
 69.30        3.87807e+00        -4.21226e-01        0.00000e+00        0.00000e+00        0.00000e+00        4.34280e-03 
 70.00        3.87456e+00        -4.25787e-01        0.00000e+00        0.00000e+00        0.00000e+00        4.37238e-03 
 70.70        3.87101e+00        -4.30331e-01        0.00000e+00        0.00000e+00        0.00000e+00        4.40166e-03 
 71.40        3.86743e+00        -4.34858e-01        0.00000e+00        0.00000e+00        0.00000e+00        4.43065e-03 
 72.10        3.86382e+00        -4.39368e-01        0.00000e+00        0.00000e+00        0.00000e+00        4.45934e-03 
 72.80        3.86018e+00        -4.43861e-01        0.00000e+00        0.00000e+00        0.00000e+00        4.48775e-03 
 73.50        3.85651e+00        -4.48335e-01        0.00000e+00        0.00000e+00        0.00000e+00        4.51586e-03 
 74.20        3.85282e+00        -4.52790e-01        0.00000e+00        0.00000e+00        0.00000e+00        4.54368e-03 
 74.90        3.84909e+00        -4.57227e-01        0.00000e+00        0.00000e+00        0.00000e+00        4.57121e-03 
 75.60        3.84533e+00        -4.61644e-01        0.00000e+00        0.00000e+00        0.00000e+00        4.59845e-03 
 76.30        3.84154e+00        -4.66041e-01        0.00000e+00        0.00000e+00        0.00000e+00        4.62540e-03 
 77.00        3.83772e+00        -4.70418e-01        0.00000e+00        0.00000e+00        0.00000e+00        4.65205e-03 
 77.70        3.83387e+00        -4.74775e-01        0.00000e+00        0.00000e+00        0.00000e+00        4.67842e-03 
 78.40        3.82999e+00        -4.79110e-01        0.00000e+00        0.00000e+00        0.00000e+00        4.70450e-03 
 79.10        3.82608e+00        -4.83424e-01        0.00000e+00        0.00000e+00        0.00000e+00        4.73029e-03 
 79.80        3.82214e+00        -4.87717e-01        0.00000e+00        0.00000e+00        0.00000e+00        4.75578e-03 
 80.50        3.81818e+00        -4.91987e-01        0.00000e+00        0.00000e+00        0.00000e+00        4.78099e-03 
 81.20        3.81418e+00        -4.96235e-01        0.00000e+00        0.00000e+00        0.00000e+00        4.80591e-03 
 81.90        3.81015e+00        -5.00460e-01        0.00000e+00        0.00000e+00        0.00000e+00        4.83055e-03 
 82.60        3.80609e+00        -5.04662e-01        0.00000e+00        0.00000e+00        0.00000e+00        4.85489e-03 
 83.30        3.80201e+00        -5.08841e-01        0.00000e+00        0.00000e+00        0.00000e+00        4.87895e-03 
 84.00        3.79789e+00        -5.12996e-01        0.00000e+00        0.00000e+00        0.00000e+00        4.90273e-03 
 84.70        3.79374e+00        -5.17127e-01        0.00000e+00        0.00000e+00        0.00000e+00        4.92622e-03 
 85.40        3.78957e+00        -5.21233e-01        0.00000e+00        0.00000e+00        0.00000e+00        4.94942e-03 
 86.10        3.78537e+00        -5.25315e-01        0.00000e+00        0.00000e+00        0.00000e+00        4.97234e-03 
 86.80        3.78114e+00        -5.29373e-01        0.00000e+00        0.00000e+00        0.00000e+00        4.99497e-03 
 87.50        3.77687e+00        -5.33405e-01        0.00000e+00        0.00000e+00        0.00000e+00        5.01732e-03 
 88.20        3.77259e+00        -5.37411e-01        0.00000e+00        0.00000e+00        0.00000e+00        5.03939e-03 
 88.90        3.76827e+00        -5.41392e-01        0.00000e+00        0.00000e+00        0.00000e+00        5.06118e-03 
 89.60        3.76392e+00        -5.45347e-01        0.00000e+00        0.00000e+00        0.00000e+00        5.08268e-03 
 90.30        3.75955e+00        -5.49276e-01        0.00000e+00        0.00000e+00        0.00000e+00        5.10391e-03 
 91.00        3.75515e+00        -5.53178e-01        0.00000e+00        0.00000e+00        0.00000e+00        5.12486e-03 
 91.70        3.75072e+00        -5.57054e-01        0.00000e+00        0.00000e+00        0.00000e+00        5.14552e-03 
 92.40        3.74626e+00        -5.60903e-01        0.00000e+00        0.00000e+00        0.00000e+00        5.16591e-03 
 93.10        3.74177e+00        -5.64725e-01        0.00000e+00        0.00000e+00        0.00000e+00        5.18603e-03 
 93.80        3.73726e+00        -5.68519e-01        0.00000e+00        0.00000e+00        0.00000e+00        5.20586e-03 
 94.50        3.73272e+00        -5.72286e-01        0.00000e+00        0.00000e+00        0.00000e+00        5.22542e-03 
 95.20        3.72816e+00        -5.76026e-01        0.00000e+00        0.00000e+00        0.00000e+00        5.24471e-03 
 95.90        3.72357e+00        -5.79737e-01        0.00000e+00        0.00000e+00        0.00000e+00        5.26372e-03 
 96.60        3.71895e+00        -5.83421e-01        0.00000e+00        0.00000e+00        0.00000e+00        5.28246e-03 
 97.30        3.71430e+00        -5.87076e-01        0.00000e+00        0.00000e+00        0.00000e+00        5.30093e-03 
 98.00        3.70963e+00        -5.90703e-01        0.00000e+00        0.00000e+00        0.00000e+00        5.31913e-03 
 98.70        3.70494e+00        -5.94301e-01        0.00000e+00        0.00000e+00        0.00000e+00        5.33706e-03 
 99.40        3.70022e+00        -5.97871e-01        0.00000e+00        0.00000e+00        0.00000e+00        5.35472e-03 
 100.10        3.69547e+00        -6.01412e-01        0.00000e+00        0.00000e+00        0.00000e+00        5.37211e-03 
 100.80        3.69070e+00        -6.04924e-01        0.00000e+00        0.00000e+00        0.00000e+00        5.38924e-03 
 101.50        3.68590e+00        -6.08407e-01        0.00000e+00        0.00000e+00        0.00000e+00        5.40610e-03 
 102.20        3.68108e+00        -6.11861e-01        0.00000e+00        0.00000e+00        0.00000e+00        5.42269e-03 
 102.90        3.67623e+00        -6.15285e-01        0.00000e+00        0.00000e+00        0.00000e+00        5.43903e-03 
 103.60        3.67137e+00        -6.18680e-01        0.00000e+00        0.00000e+00        0.00000e+00        5.45510e-03 
 104.30        3.66647e+00        -6.22046e-01        0.00000e+00        0.00000e+00        0.00000e+00        5.47091e-03 
 105.00        3.66156e+00        -6.25382e-01        0.00000e+00        0.00000e+00        0.00000e+00        5.48646e-03 
 105.70        3.65662e+00        -6.28688e-01        0.00000e+00        0.00000e+00        0.00000e+00        5.50176e-03 
 106.40        3.65165e+00        -6.31964e-01        0.00000e+00        0.00000e+00        0.00000e+00        5.51680e-03 
 107.10        3.64667e+00        -6.35211e-01        0.00000e+00        0.00000e+00        0.00000e+00        5.53158e-03 
 107.80        3.64166e+00        -6.38428e-01        0.00000e+00        0.00000e+00        0.00000e+00        5.54611e-03 
 108.50        3.63663e+00        -6.41614e-01        0.00000e+00        0.00000e+00        0.00000e+00        5.56038e-03 
 109.20        3.63158e+00        -6.44771e-01        0.00000e+00        0.00000e+00        0.00000e+00        5.57441e-03 
 109.90        3.62651e+00        -6.47898e-01        0.00000e+00        0.00000e+00        0.00000e+00        5.58818e-03 
 110.60        3.62141e+00        -6.50994e-01        0.00000e+00        0.00000e+00        0.00000e+00        5.60170e-03 
 111.30        3.61630e+00        -6.54060e-01        0.00000e+00        0.00000e+00        0.00000e+00        5.61498e-03 
 112.00        3.61116e+00        -6.57096e-01        0.00000e+00        0.00000e+00        0.00000e+00        5.62801e-03 
