#Navio B MarAd
#Manobra de Curva Giro
#
#Velocidade Sistema Solidário 
#
#temp           u           v           w    dot roll   dot pitch     dot yaw 
 0.00        4.11000e+00        0.00000e+00        0.00000e+00        0.00000e+00        0.00000e+00        0.00000e+00 
 0.70        4.11000e+00        8.64984e-05        0.00000e+00        0.00000e+00        0.00000e+00        -1.86400e-06 
 1.40        4.11000e+00        1.74827e-04        0.00000e+00        0.00000e+00        0.00000e+00        -3.71374e-06 
 2.10        4.10798e+00        -3.05406e-03        0.00000e+00        0.00000e+00        0.00000e+00        6.53982e-05 
 2.80        4.10595e+00        -6.34854e-03        0.00000e+00        0.00000e+00        0.00000e+00        1.33942e-04 
 3.50        4.10393e+00        -9.70734e-03        0.00000e+00        0.00000e+00        0.00000e+00        2.01926e-04 
 4.20        4.10191e+00        -1.31292e-02        0.00000e+00        0.00000e+00        0.00000e+00        2.69360e-04 
 4.90        4.09989e+00        -1.66130e-02        0.00000e+00        0.00000e+00        0.00000e+00        3.36251e-04 
 5.60        4.09788e+00        -2.01574e-02        0.00000e+00        0.00000e+00        0.00000e+00        4.02609e-04 
 6.30        4.09586e+00        -2.37612e-02        0.00000e+00        0.00000e+00        0.00000e+00        4.68441e-04 
 7.00        4.09384e+00        -2.74233e-02        0.00000e+00        0.00000e+00        0.00000e+00        5.33756e-04 
 7.70        4.09182e+00        -3.11424e-02        0.00000e+00        0.00000e+00        0.00000e+00        5.98559e-04 
 8.40        4.08980e+00        -3.49174e-02        0.00000e+00        0.00000e+00        0.00000e+00        6.62859e-04 
 9.10        4.08777e+00        -3.87471e-02        0.00000e+00        0.00000e+00        0.00000e+00        7.26662e-04 
 9.80        4.08575e+00        -4.26303e-02        0.00000e+00        0.00000e+00        0.00000e+00        7.89976e-04 
 10.50        4.08372e+00        -4.65660e-02        0.00000e+00        0.00000e+00        0.00000e+00        8.52806e-04 
 11.20        4.08168e+00        -5.05529e-02        0.00000e+00        0.00000e+00        0.00000e+00        9.15160e-04 
 11.90        4.07965e+00        -5.45899e-02        0.00000e+00        0.00000e+00        0.00000e+00        9.77042e-04 
 12.60        4.07760e+00        -5.86760e-02        0.00000e+00        0.00000e+00        0.00000e+00        1.03846e-03 
 13.30        4.07555e+00        -6.28099e-02        0.00000e+00        0.00000e+00        0.00000e+00        1.09942e-03 
 14.00        4.07350e+00        -6.69907e-02        0.00000e+00        0.00000e+00        0.00000e+00        1.15992e-03 
 14.70        4.07143e+00        -7.12171e-02        0.00000e+00        0.00000e+00        0.00000e+00        1.21998e-03 
 15.40        4.06936e+00        -7.54882e-02        0.00000e+00        0.00000e+00        0.00000e+00        1.27959e-03 
 16.10        4.06729e+00        -7.98027e-02        0.00000e+00        0.00000e+00        0.00000e+00        1.33876e-03 
 16.80        4.06520e+00        -8.41597e-02        0.00000e+00        0.00000e+00        0.00000e+00        1.39750e-03 
 17.50        4.06310e+00        -8.85581e-02        0.00000e+00        0.00000e+00        0.00000e+00        1.45581e-03 
 18.20        4.06100e+00        -9.29968e-02        0.00000e+00        0.00000e+00        0.00000e+00        1.51369e-03 
 18.90        4.05888e+00        -9.74748e-02        0.00000e+00        0.00000e+00        0.00000e+00        1.57115e-03 
 19.60        4.05676e+00        -1.01991e-01        0.00000e+00        0.00000e+00        0.00000e+00        1.62819e-03 
 20.30        4.05462e+00        -1.06544e-01        0.00000e+00        0.00000e+00        0.00000e+00        1.68482e-03 
 21.00        4.05247e+00        -1.11134e-01        0.00000e+00        0.00000e+00        0.00000e+00        1.74104e-03 
 21.70        4.05031e+00        -1.15759e-01        0.00000e+00        0.00000e+00        0.00000e+00        1.79686e-03 
 22.40        4.04814e+00        -1.20417e-01        0.00000e+00        0.00000e+00        0.00000e+00        1.85227e-03 
 23.10        4.04595e+00        -1.25109e-01        0.00000e+00        0.00000e+00        0.00000e+00        1.90728e-03 
 23.80        4.04375e+00        -1.29833e-01        0.00000e+00        0.00000e+00        0.00000e+00        1.96189e-03 
 24.50        4.04153e+00        -1.34588e-01        0.00000e+00        0.00000e+00        0.00000e+00        2.01611e-03 
 25.20        4.03930e+00        -1.39373e-01        0.00000e+00        0.00000e+00        0.00000e+00        2.06994e-03 
 25.90        4.03705e+00        -1.44187e-01        0.00000e+00        0.00000e+00        0.00000e+00        2.12338e-03 
 26.60        4.03479e+00        -1.49030e-01        0.00000e+00        0.00000e+00        0.00000e+00        2.17643e-03 
 27.30        4.03250e+00        -1.53899e-01        0.00000e+00        0.00000e+00        0.00000e+00        2.22910e-03 
 28.00        4.03021e+00        -1.58795e-01        0.00000e+00        0.00000e+00        0.00000e+00        2.28139e-03 
 28.70        4.02789e+00        -1.63715e-01        0.00000e+00        0.00000e+00        0.00000e+00        2.33330e-03 
 29.40        4.02556e+00        -1.68661e-01        0.00000e+00        0.00000e+00        0.00000e+00        2.38483e-03 
 30.10        4.02320e+00        -1.73629e-01        0.00000e+00        0.00000e+00        0.00000e+00        2.43598e-03 
 30.80        4.02083e+00        -1.78620e-01        0.00000e+00        0.00000e+00        0.00000e+00        2.48677e-03 
 31.50        4.01844e+00        -1.83632e-01        0.00000e+00        0.00000e+00        0.00000e+00        2.53718e-03 
 32.20        4.01602e+00        -1.88664e-01        0.00000e+00        0.00000e+00        0.00000e+00        2.58722e-03 
 32.90        4.01359e+00        -1.93717e-01        0.00000e+00        0.00000e+00        0.00000e+00        2.63689e-03 
 33.60        4.01113e+00        -1.98788e-01        0.00000e+00        0.00000e+00        0.00000e+00        2.68620e-03 
 34.30        4.00866e+00        -2.03876e-01        0.00000e+00        0.00000e+00        0.00000e+00        2.73514e-03 
 35.00        4.00616e+00        -2.08982e-01        0.00000e+00        0.00000e+00        0.00000e+00        2.78372e-03 
 35.70        4.00363e+00        -2.14103e-01        0.00000e+00        0.00000e+00        0.00000e+00        2.83193e-03 
 36.40        4.00109e+00        -2.19239e-01        0.00000e+00        0.00000e+00        0.00000e+00        2.87979e-03 
 37.10        3.99852e+00        -2.24390e-01        0.00000e+00        0.00000e+00        0.00000e+00        2.92728e-03 
 37.80        3.99592e+00        -2.29553e-01        0.00000e+00        0.00000e+00        0.00000e+00        2.97441e-03 
 38.50        3.99330e+00        -2.34730e-01        0.00000e+00        0.00000e+00        0.00000e+00        3.02118e-03 
 39.20        3.99066e+00        -2.39917e-01        0.00000e+00        0.00000e+00        0.00000e+00        3.06760e-03 
 39.90        3.98799e+00        -2.45115e-01        0.00000e+00        0.00000e+00        0.00000e+00        3.11366e-03 
 40.60        3.98530e+00        -2.50323e-01        0.00000e+00        0.00000e+00        0.00000e+00        3.15936e-03 
 41.30        3.98257e+00        -2.55540e-01        0.00000e+00        0.00000e+00        0.00000e+00        3.20471e-03 
 42.00        3.97983e+00        -2.60766e-01        0.00000e+00        0.00000e+00        0.00000e+00        3.24970e-03 
 42.70        3.97705e+00        -2.65998e-01        0.00000e+00        0.00000e+00        0.00000e+00        3.29434e-03 
 43.40        3.97425e+00        -2.71237e-01        0.00000e+00        0.00000e+00        0.00000e+00        3.33862e-03 
 44.10        3.97142e+00        -2.76481e-01        0.00000e+00        0.00000e+00        0.00000e+00        3.38255e-03 
 44.80        3.96856e+00        -2.81730e-01        0.00000e+00        0.00000e+00        0.00000e+00        3.42613e-03 
 45.50        3.96567e+00        -2.86983e-01        0.00000e+00        0.00000e+00        0.00000e+00        3.46936e-03 
 46.20        3.96275e+00        -2.92240e-01        0.00000e+00        0.00000e+00        0.00000e+00        3.51223e-03 
 46.90        3.95981e+00        -2.97498e-01        0.00000e+00        0.00000e+00        0.00000e+00        3.55476e-03 
 47.60        3.95683e+00        -3.02759e-01        0.00000e+00        0.00000e+00        0.00000e+00        3.59693e-03 
 48.30        3.95383e+00        -3.08020e-01        0.00000e+00        0.00000e+00        0.00000e+00        3.63875e-03 
 49.00        3.95079e+00        -3.13281e-01        0.00000e+00        0.00000e+00        0.00000e+00        3.68022e-03 
 49.70        3.94773e+00        -3.18542e-01        0.00000e+00        0.00000e+00        0.00000e+00        3.72135e-03 
 50.40        3.94463e+00        -3.23801e-01        0.00000e+00        0.00000e+00        0.00000e+00        3.76212e-03 
 51.10        3.94150e+00        -3.29057e-01        0.00000e+00        0.00000e+00        0.00000e+00        3.80254e-03 
 51.80        3.93834e+00        -3.34311e-01        0.00000e+00        0.00000e+00        0.00000e+00        3.84261e-03 
 52.50        3.93515e+00        -3.39561e-01        0.00000e+00        0.00000e+00        0.00000e+00        3.88233e-03 
 53.20        3.93192e+00        -3.44807e-01        0.00000e+00        0.00000e+00        0.00000e+00        3.92171e-03 
 53.90        3.92867e+00        -3.50047e-01        0.00000e+00        0.00000e+00        0.00000e+00        3.96073e-03 
 54.60        3.92538e+00        -3.55282e-01        0.00000e+00        0.00000e+00        0.00000e+00        3.99941e-03 
 55.30        3.92206e+00        -3.60510e-01        0.00000e+00        0.00000e+00        0.00000e+00        4.03774e-03 
 56.00        3.91871e+00        -3.65731e-01        0.00000e+00        0.00000e+00        0.00000e+00        4.07572e-03 
 56.70        3.91532e+00        -3.70944e-01        0.00000e+00        0.00000e+00        0.00000e+00        4.11335e-03 
 57.40        3.91190e+00        -3.76148e-01        0.00000e+00        0.00000e+00        0.00000e+00        4.15063e-03 
 58.10        3.90845e+00        -3.81343e-01        0.00000e+00        0.00000e+00        0.00000e+00        4.18756e-03 
 58.80        3.90496e+00        -3.86528e-01        0.00000e+00        0.00000e+00        0.00000e+00        4.22415e-03 
 59.50        3.90144e+00        -3.91703e-01        0.00000e+00        0.00000e+00        0.00000e+00        4.26039e-03 
 60.20        3.89788e+00        -3.96866e-01        0.00000e+00        0.00000e+00        0.00000e+00        4.29628e-03 
 60.90        3.89430e+00        -4.02017e-01        0.00000e+00        0.00000e+00        0.00000e+00        4.33182e-03 
 61.60        3.89067e+00        -4.07156e-01        0.00000e+00        0.00000e+00        0.00000e+00        4.36702e-03 
 62.30        3.88702e+00        -4.12281e-01        0.00000e+00        0.00000e+00        0.00000e+00        4.40186e-03 
 63.00        3.88332e+00        -4.17393e-01        0.00000e+00        0.00000e+00        0.00000e+00        4.43636e-03 
 63.70        3.87960e+00        -4.22491e-01        0.00000e+00        0.00000e+00        0.00000e+00        4.47052e-03 
 64.40        3.87584e+00        -4.27573e-01        0.00000e+00        0.00000e+00        0.00000e+00        4.50433e-03 
 65.10        3.87204e+00        -4.32640e-01        0.00000e+00        0.00000e+00        0.00000e+00        4.53779e-03 
 65.80        3.86821e+00        -4.37691e-01        0.00000e+00        0.00000e+00        0.00000e+00        4.57090e-03 
 66.50        3.86434e+00        -4.42726e-01        0.00000e+00        0.00000e+00        0.00000e+00        4.60367e-03 
 67.20        3.86044e+00        -4.47743e-01        0.00000e+00        0.00000e+00        0.00000e+00        4.63609e-03 
 67.90        3.85651e+00        -4.52742e-01        0.00000e+00        0.00000e+00        0.00000e+00        4.66817e-03 
 68.60        3.85254e+00        -4.57723e-01        0.00000e+00        0.00000e+00        0.00000e+00        4.69990e-03 
 69.30        3.84853e+00        -4.62685e-01        0.00000e+00        0.00000e+00        0.00000e+00        4.73129e-03 
 70.00        3.84449e+00        -4.67628e-01        0.00000e+00        0.00000e+00        0.00000e+00        4.76233e-03 
 70.70        3.84041e+00        -4.72551e-01        0.00000e+00        0.00000e+00        0.00000e+00        4.79302e-03 
 71.40        3.83630e+00        -4.77453e-01        0.00000e+00        0.00000e+00        0.00000e+00        4.82338e-03 
 72.10        3.83216e+00        -4.82335e-01        0.00000e+00        0.00000e+00        0.00000e+00        4.85339e-03 
 72.80        3.82798e+00        -4.87195e-01        0.00000e+00        0.00000e+00        0.00000e+00        4.88305e-03 
 73.50        3.82376e+00        -4.92034e-01        0.00000e+00        0.00000e+00        0.00000e+00        4.91237e-03 
 74.20        3.81951e+00        -4.96850e-01        0.00000e+00        0.00000e+00        0.00000e+00        4.94136e-03 
 74.90        3.81522e+00        -5.01643e-01        0.00000e+00        0.00000e+00        0.00000e+00        4.96999e-03 
 75.60        3.81090e+00        -5.06413e-01        0.00000e+00        0.00000e+00        0.00000e+00        4.99829e-03 
 76.30        3.80655e+00        -5.11160e-01        0.00000e+00        0.00000e+00        0.00000e+00        5.02625e-03 
 77.00        3.80216e+00        -5.15883e-01        0.00000e+00        0.00000e+00        0.00000e+00        5.05386e-03 
 77.70        3.79773e+00        -5.20581e-01        0.00000e+00        0.00000e+00        0.00000e+00        5.08114e-03 
 78.40        3.79328e+00        -5.25254e-01        0.00000e+00        0.00000e+00        0.00000e+00        5.10808e-03 
 79.10        3.78878e+00        -5.29902e-01        0.00000e+00        0.00000e+00        0.00000e+00        5.13468e-03 
 79.80        3.78426e+00        -5.34524e-01        0.00000e+00        0.00000e+00        0.00000e+00        5.16094e-03 
 80.50        3.77969e+00        -5.39120e-01        0.00000e+00        0.00000e+00        0.00000e+00        5.18686e-03 
 81.20        3.77510e+00        -5.43690e-01        0.00000e+00        0.00000e+00        0.00000e+00        5.21245e-03 
 81.90        3.77047e+00        -5.48233e-01        0.00000e+00        0.00000e+00        0.00000e+00        5.23770e-03 
 82.60        3.76581e+00        -5.52749e-01        0.00000e+00        0.00000e+00        0.00000e+00        5.26262e-03 
 83.30        3.76111e+00        -5.57237e-01        0.00000e+00        0.00000e+00        0.00000e+00        5.28720e-03 
 84.00        3.75638e+00        -5.61697e-01        0.00000e+00        0.00000e+00        0.00000e+00        5.31145e-03 
 84.70        3.75162e+00        -5.66130e-01        0.00000e+00        0.00000e+00        0.00000e+00        5.33537e-03 
 85.40        3.74682e+00        -5.70534e-01        0.00000e+00        0.00000e+00        0.00000e+00        5.35896e-03 
 86.10        3.74199e+00        -5.74909e-01        0.00000e+00        0.00000e+00        0.00000e+00        5.38221e-03 
 86.80        3.73713e+00        -5.79255e-01        0.00000e+00        0.00000e+00        0.00000e+00        5.40514e-03 
 87.50        3.73224e+00        -5.83571e-01        0.00000e+00        0.00000e+00        0.00000e+00        5.42774e-03 
 88.20        3.72731e+00        -5.87858e-01        0.00000e+00        0.00000e+00        0.00000e+00        5.45001e-03 
 88.90        3.72235e+00        -5.92116e-01        0.00000e+00        0.00000e+00        0.00000e+00        5.47195e-03 
 89.60        3.71736e+00        -5.96342e-01        0.00000e+00        0.00000e+00        0.00000e+00        5.49357e-03 
 90.30        3.71234e+00        -6.00539e-01        0.00000e+00        0.00000e+00        0.00000e+00        5.51486e-03 
 91.00        3.70729e+00        -6.04705e-01        0.00000e+00        0.00000e+00        0.00000e+00        5.53584e-03 
 91.70        3.70220e+00        -6.08840e-01        0.00000e+00        0.00000e+00        0.00000e+00        5.55649e-03 
 92.40        3.69709e+00        -6.12944e-01        0.00000e+00        0.00000e+00        0.00000e+00        5.57681e-03 
 93.10        3.69194e+00        -6.17016e-01        0.00000e+00        0.00000e+00        0.00000e+00        5.59682e-03 
 93.80        3.68677e+00        -6.21057e-01        0.00000e+00        0.00000e+00        0.00000e+00        5.61651e-03 
 94.50        3.68156e+00        -6.25067e-01        0.00000e+00        0.00000e+00        0.00000e+00        5.63589e-03 
 95.20        3.67633e+00        -6.29044e-01        0.00000e+00        0.00000e+00        0.00000e+00        5.65495e-03 
 95.90        3.67107e+00        -6.32989e-01        0.00000e+00        0.00000e+00        0.00000e+00        5.67369e-03 
 96.60        3.66577e+00        -6.36902e-01        0.00000e+00        0.00000e+00        0.00000e+00        5.69212e-03 
 97.30        3.66045e+00        -6.40782e-01        0.00000e+00        0.00000e+00        0.00000e+00        5.71024e-03 
 98.00        3.65510e+00        -6.44630e-01        0.00000e+00        0.00000e+00        0.00000e+00        5.72805e-03 
 98.70        3.64972e+00        -6.48445e-01        0.00000e+00        0.00000e+00        0.00000e+00        5.74555e-03 
 99.40        3.64432e+00        -6.52227e-01        0.00000e+00        0.00000e+00        0.00000e+00        5.76275e-03 
 100.10        3.63888e+00        -6.55976e-01        0.00000e+00        0.00000e+00        0.00000e+00        5.77964e-03 
 100.80        3.63342e+00        -6.59692e-01        0.00000e+00        0.00000e+00        0.00000e+00        5.79622e-03 
 101.50        3.62793e+00        -6.63374e-01        0.00000e+00        0.00000e+00        0.00000e+00        5.81250e-03 
 102.20        3.62242e+00        -6.67023e-01        0.00000e+00        0.00000e+00        0.00000e+00        5.82849e-03 
 102.90        3.61687e+00        -6.70639e-01        0.00000e+00        0.00000e+00        0.00000e+00        5.84417e-03 
 103.60        3.61131e+00        -6.74221e-01        0.00000e+00        0.00000e+00        0.00000e+00        5.85955e-03 
 104.30        3.60572e+00        -6.77769e-01        0.00000e+00        0.00000e+00        0.00000e+00        5.87464e-03 
 105.00        3.60010e+00        -6.81284e-01        0.00000e+00        0.00000e+00        0.00000e+00        5.88943e-03 
 105.70        3.59445e+00        -6.84765e-01        0.00000e+00        0.00000e+00        0.00000e+00        5.90393e-03 
 106.40        3.58879e+00        -6.88211e-01        0.00000e+00        0.00000e+00        0.00000e+00        5.91814e-03 
 107.10        3.58310e+00        -6.91624e-01        0.00000e+00        0.00000e+00        0.00000e+00        5.93206e-03 
 107.80        3.57738e+00        -6.95003e-01        0.00000e+00        0.00000e+00        0.00000e+00        5.94570e-03 
 108.50        3.57164e+00        -6.98348e-01        0.00000e+00        0.00000e+00        0.00000e+00        5.95905e-03 
 109.20        3.56588e+00        -7.01658e-01        0.00000e+00        0.00000e+00        0.00000e+00        5.97211e-03 
 109.90        3.56009e+00        -7.04935e-01        0.00000e+00        0.00000e+00        0.00000e+00        5.98489e-03 
 110.60        3.55429e+00        -7.08177e-01        0.00000e+00        0.00000e+00        0.00000e+00        5.99739e-03 
 111.30        3.54846e+00        -7.11385e-01        0.00000e+00        0.00000e+00        0.00000e+00        6.00962e-03 
 112.00        3.54261e+00        -7.14559e-01        0.00000e+00        0.00000e+00        0.00000e+00        6.02156e-03 
