#Navio B MarAd
#Manobra de Curva Giro
#
#Velocidade Inercial
#
#temp           u           v           r
 0.00        4.11000e+00        0.00000e+00        0.00000e+00 
 0.70        4.11000e+00        8.38136e-05        0.00000e+00 
 1.40        4.11000e+00        1.64115e-04        0.00000e+00 
 2.10        4.10798e+00        -2.97594e-03        0.00000e+00 
 2.80        4.10595e+00        -5.98385e-03        0.00000e+00 
 3.50        4.10393e+00        -8.86027e-03        0.00000e+00 
 4.20        4.10192e+00        -1.16058e-02        0.00000e+00 
 4.90        4.09990e+00        -1.42212e-02        0.00000e+00 
 5.60        4.09789e+00        -1.67069e-02        0.00000e+00 
 6.30        4.09588e+00        -1.90636e-02        0.00000e+00 
 7.00        4.09388e+00        -2.12918e-02        0.00000e+00 
 7.70        4.09187e+00        -2.33922e-02        0.00000e+00 
 8.40        4.08987e+00        -2.53652e-02        0.00000e+00 
 9.10        4.08787e+00        -2.72115e-02        0.00000e+00 
 9.80        4.08587e+00        -2.89314e-02        0.00000e+00 
 10.50        4.08387e+00        -3.05256e-02        0.00000e+00 
 11.20        4.08187e+00        -3.19946e-02        0.00000e+00 
 11.90        4.07987e+00        -3.33388e-02        0.00000e+00 
 12.60        4.07788e+00        -3.45587e-02        0.00000e+00 
 13.30        4.07588e+00        -3.56548e-02        0.00000e+00 
 14.00        4.07388e+00        -3.66275e-02        0.00000e+00 
 14.70        4.07188e+00        -3.74774e-02        0.00000e+00 
 15.40        4.06988e+00        -3.82048e-02        0.00000e+00 
 16.10        4.06788e+00        -3.88103e-02        0.00000e+00 
 16.80        4.06588e+00        -3.92941e-02        0.00000e+00 
 17.50        4.06388e+00        -3.96569e-02        0.00000e+00 
 18.20        4.06187e+00        -3.98989e-02        0.00000e+00 
 18.90        4.05986e+00        -4.00207e-02        0.00000e+00 
 19.60        4.05784e+00        -4.00226e-02        0.00000e+00 
 20.30        4.05583e+00        -3.99051e-02        0.00000e+00 
 21.00        4.05380e+00        -3.96685e-02        0.00000e+00 
 21.70        4.05177e+00        -3.93133e-02        0.00000e+00 
 22.40        4.04974e+00        -3.88399e-02        0.00000e+00 
 23.10        4.04770e+00        -3.82486e-02        0.00000e+00 
 23.80        4.04566e+00        -3.75400e-02        0.00000e+00 
 24.50        4.04360e+00        -3.67144e-02        0.00000e+00 
 25.20        4.04154e+00        -3.57722e-02        0.00000e+00 
 25.90        4.03947e+00        -3.47138e-02        0.00000e+00 
 26.60        4.03740e+00        -3.35396e-02        0.00000e+00 
 27.30        4.03531e+00        -3.22501e-02        0.00000e+00 
 28.00        4.03322e+00        -3.08456e-02        0.00000e+00 
 28.70        4.03111e+00        -2.93266e-02        0.00000e+00 
 29.40        4.02899e+00        -2.76934e-02        0.00000e+00 
 30.10        4.02686e+00        -2.59466e-02        0.00000e+00 
 30.80        4.02472e+00        -2.40865e-02        0.00000e+00 
 31.50        4.02257e+00        -2.21136e-02        0.00000e+00 
 32.20        4.02040e+00        -2.00283e-02        0.00000e+00 
 32.90        4.01822e+00        -1.78311e-02        0.00000e+00 
 33.60        4.01603e+00        -1.55223e-02        0.00000e+00 
 34.30        4.01382e+00        -1.31025e-02        0.00000e+00 
 35.00        4.01159e+00        -1.05721e-02        0.00000e+00 
 35.70        4.00935e+00        -7.93161e-03        0.00000e+00 
 36.40        4.00709e+00        -5.18145e-03        0.00000e+00 
 37.10        4.00481e+00        -2.32213e-03        0.00000e+00 
 37.80        4.00251e+00        6.45869e-04        0.00000e+00 
 38.50        4.00020e+00        3.72204e-03        0.00000e+00 
 39.20        3.99786e+00        6.90589e-03        0.00000e+00 
 39.90        3.99550e+00        1.01969e-02        0.00000e+00 
 40.60        3.99313e+00        1.35945e-02        0.00000e+00 
 41.30        3.99073e+00        1.70982e-02        0.00000e+00 
 42.00        3.98831e+00        2.07075e-02        0.00000e+00 
 42.70        3.98586e+00        2.44218e-02        0.00000e+00 
 43.40        3.98339e+00        2.82405e-02        0.00000e+00 
 44.10        3.98090e+00        3.21630e-02        0.00000e+00 
 44.80        3.97838e+00        3.61889e-02        0.00000e+00 
 45.50        3.97584e+00        4.03174e-02        0.00000e+00 
 46.20        3.97327e+00        4.45480e-02        0.00000e+00 
 46.90        3.97067e+00        4.88801e-02        0.00000e+00 
 47.60        3.96804e+00        5.33129e-02        0.00000e+00 
 48.30        3.96539e+00        5.78460e-02        0.00000e+00 
 49.00        3.96270e+00        6.24786e-02        0.00000e+00 
 49.70        3.95999e+00        6.72101e-02        0.00000e+00 
 50.40        3.95724e+00        7.20398e-02        0.00000e+00 
 51.10        3.95446e+00        7.69670e-02        0.00000e+00 
 51.80        3.95165e+00        8.19910e-02        0.00000e+00 
 52.50        3.94881e+00        8.71111e-02        0.00000e+00 
 53.20        3.94593e+00        9.23266e-02        0.00000e+00 
 53.90        3.94302e+00        9.76367e-02        0.00000e+00 
 54.60        3.94008e+00        1.03041e-01        0.00000e+00 
 55.30        3.93710e+00        1.08538e-01        0.00000e+00 
 56.00        3.93408e+00        1.14127e-01        0.00000e+00 
 56.70        3.93103e+00        1.19808e-01        0.00000e+00 
 57.40        3.92794e+00        1.25580e-01        0.00000e+00 
 58.10        3.92481e+00        1.31442e-01        0.00000e+00 
 58.80        3.92164e+00        1.37393e-01        0.00000e+00 
 59.50        3.91843e+00        1.43432e-01        0.00000e+00 
 60.20        3.91518e+00        1.49559e-01        0.00000e+00 
 60.90        3.91189e+00        1.55773e-01        0.00000e+00 
 61.60        3.90856e+00        1.62072e-01        0.00000e+00 
 62.30        3.90519e+00        1.68456e-01        0.00000e+00 
 63.00        3.90177e+00        1.74923e-01        0.00000e+00 
 63.70        3.89831e+00        1.81474e-01        0.00000e+00 
 64.40        3.89481e+00        1.88108e-01        0.00000e+00 
 65.10        3.89126e+00        1.94822e-01        0.00000e+00 
 65.80        3.88767e+00        2.01616e-01        0.00000e+00 
 66.50        3.88403e+00        2.08490e-01        0.00000e+00 
 67.20        3.88034e+00        2.15442e-01        0.00000e+00 
 67.90        3.87661e+00        2.22472e-01        0.00000e+00 
 68.60        3.87283e+00        2.29578e-01        0.00000e+00 
 69.30        3.86901e+00        2.36759e-01        0.00000e+00 
 70.00        3.86513e+00        2.44015e-01        0.00000e+00 
 70.70        3.86121e+00        2.51344e-01        0.00000e+00 
 71.40        3.85723e+00        2.58745e-01        0.00000e+00 
 72.10        3.85321e+00        2.66218e-01        0.00000e+00 
 72.80        3.84913e+00        2.73760e-01        0.00000e+00 
 73.50        3.84501e+00        2.81372e-01        0.00000e+00 
 74.20        3.84083e+00        2.89053e-01        0.00000e+00 
 74.90        3.83660e+00        2.96800e-01        0.00000e+00 
 75.60        3.83232e+00        3.04613e-01        0.00000e+00 
 76.30        3.82798e+00        3.12491e-01        0.00000e+00 
 77.00        3.82359e+00        3.20432e-01        0.00000e+00 
 77.70        3.81915e+00        3.28437e-01        0.00000e+00 
 78.40        3.81466e+00        3.36502e-01        0.00000e+00 
 79.10        3.81011e+00        3.44629e-01        0.00000e+00 
 79.80        3.80550e+00        3.52814e-01        0.00000e+00 
 80.50        3.80084e+00        3.61058e-01        0.00000e+00 
 81.20        3.79612e+00        3.69358e-01        0.00000e+00 
 81.90        3.79135e+00        3.77715e-01        0.00000e+00 
 82.60        3.78652e+00        3.86126e-01        0.00000e+00 
 83.30        3.78163e+00        3.94590e-01        0.00000e+00 
 84.00        3.77669e+00        4.03107e-01        0.00000e+00 
 84.70        3.77169e+00        4.11675e-01        0.00000e+00 
 85.40        3.76663e+00        4.20293e-01        0.00000e+00 
 86.10        3.76152e+00        4.28960e-01        0.00000e+00 
 86.80        3.75634e+00        4.37674e-01        0.00000e+00 
 87.50        3.75111e+00        4.46435e-01        0.00000e+00 
 88.20        3.74582e+00        4.55241e-01        0.00000e+00 
 88.90        3.74047e+00        4.64091e-01        0.00000e+00 
 89.60        3.73506e+00        4.72984e-01        0.00000e+00 
 90.30        3.72959e+00        4.81918e-01        0.00000e+00 
 91.00        3.72407e+00        4.90893e-01        0.00000e+00 
 91.70        3.71848e+00        4.99907e-01        0.00000e+00 
 92.40        3.71283e+00        5.08959e-01        0.00000e+00 
 93.10        3.70713e+00        5.18048e-01        0.00000e+00 
 93.80        3.70136e+00        5.27172e-01        0.00000e+00 
 94.50        3.69553e+00        5.36331e-01        0.00000e+00 
 95.20        3.68965e+00        5.45522e-01        0.00000e+00 
 95.90        3.68370e+00        5.54746e-01        0.00000e+00 
 96.60        3.67769e+00        5.64000e-01        0.00000e+00 
 97.30        3.67163e+00        5.73284e-01        0.00000e+00 
 98.00        3.66550e+00        5.82597e-01        0.00000e+00 
 98.70        3.65931e+00        5.91936e-01        0.00000e+00 
 99.40        3.65306e+00        6.01301e-01        0.00000e+00 
 100.10        3.64675e+00        6.10691e-01        0.00000e+00 
 100.80        3.64038e+00        6.20104e-01        0.00000e+00 
 101.50        3.63396e+00        6.29539e-01        0.00000e+00 
 102.20        3.62747e+00        6.38996e-01        0.00000e+00 
 102.90        3.62091e+00        6.48472e-01        0.00000e+00 
 103.60        3.61430e+00        6.57967e-01        0.00000e+00 
 104.30        3.60763e+00        6.67480e-01        0.00000e+00 
 105.00        3.60090e+00        6.77009e-01        0.00000e+00 
 105.70        3.59411e+00        6.86553e-01        0.00000e+00 
 106.40        3.58726e+00        6.96111e-01        0.00000e+00 
 107.10        3.58035e+00        7.05682e-01        0.00000e+00 
 107.80        3.57338e+00        7.15264e-01        0.00000e+00 
 108.50        3.56636e+00        7.24857e-01        0.00000e+00 
 109.20        3.55927e+00        7.34459e-01        0.00000e+00 
 109.90        3.55212e+00        7.44070e-01        0.00000e+00 
 110.60        3.54492e+00        7.53687e-01        0.00000e+00 
 111.30        3.53765e+00        7.63311e-01        0.00000e+00 
 112.00        3.53033e+00        7.72939e-01        0.00000e+00 
 112.70        3.52295e+00        7.82571e-01        0.00000e+00 
 113.40        3.51551e+00        7.92205e-01        0.00000e+00 
 114.10        3.50802e+00        8.01841e-01        0.00000e+00 
 114.80        3.50046e+00        8.11477e-01        0.00000e+00 
 115.50        3.49285e+00        8.21113e-01        0.00000e+00 
 116.20        3.48519e+00        8.30747e-01        0.00000e+00 
 116.90        3.47746e+00        8.40377e-01        0.00000e+00 
 117.60        3.46968e+00        8.50004e-01        0.00000e+00 
 118.30        3.46185e+00        8.59626e-01        0.00000e+00 
 119.00        3.45396e+00        8.69242e-01        0.00000e+00 
 119.70        3.44601e+00        8.78851e-01        0.00000e+00 
 120.40        3.43801e+00        8.88452e-01        0.00000e+00 
 121.10        3.42996e+00        8.98044e-01        0.00000e+00 
 121.80        3.42185e+00        9.07626e-01        0.00000e+00 
 122.50        3.41369e+00        9.17197e-01        0.00000e+00 
 123.20        3.40547e+00        9.26755e-01        0.00000e+00 
 123.90        3.39720e+00        9.36301e-01        0.00000e+00 
 124.60        3.38888e+00        9.45833e-01        0.00000e+00 
 125.30        3.38051e+00        9.55350e-01        0.00000e+00 
 126.00        3.37209e+00        9.64851e-01        0.00000e+00 
 126.70        3.36361e+00        9.74335e-01        0.00000e+00 
 127.40        3.35508e+00        9.83801e-01        0.00000e+00 
 128.10        3.34651e+00        9.93249e-01        0.00000e+00 
 128.80        3.33788e+00        1.00268e+00        0.00000e+00 
 129.50        3.32921e+00        1.01209e+00        0.00000e+00 
 130.20        3.32048e+00        1.02147e+00        0.00000e+00 
 130.90        3.31171e+00        1.03084e+00        0.00000e+00 
 131.60        3.30289e+00        1.04018e+00        0.00000e+00 
 132.30        3.29402e+00        1.04950e+00        0.00000e+00 
 133.00        3.28511e+00        1.05879e+00        0.00000e+00 
 133.70        3.27615e+00        1.06806e+00        0.00000e+00 
 134.40        3.26714e+00        1.07730e+00        0.00000e+00 
 135.10        3.25809e+00        1.08651e+00        0.00000e+00 
 135.80        3.24899e+00        1.09570e+00        0.00000e+00 
 136.50        3.23985e+00        1.10486e+00        0.00000e+00 
 137.20        3.23067e+00        1.11399e+00        0.00000e+00 
 137.90        3.22144e+00        1.12308e+00        0.00000e+00 
 138.60        3.21217e+00        1.13215e+00        0.00000e+00 
 139.30        3.20286e+00        1.14119e+00        0.00000e+00 
 140.00        3.19350e+00        1.15019e+00        0.00000e+00 
 140.70        3.18411e+00        1.15916e+00        0.00000e+00 
 141.40        3.17467e+00        1.16810e+00        0.00000e+00 
 142.10        3.16520e+00        1.17701e+00        0.00000e+00 
 142.80        3.15568e+00        1.18588e+00        0.00000e+00 
 143.50        3.14613e+00        1.19471e+00        0.00000e+00 
 144.20        3.13654e+00        1.20351e+00        0.00000e+00 
 144.90        3.12691e+00        1.21227e+00        0.00000e+00 
 145.60        3.11725e+00        1.22099e+00        0.00000e+00 
 146.30        3.10754e+00        1.22967e+00        0.00000e+00 
 147.00        3.09781e+00        1.23832e+00        0.00000e+00 
 147.70        3.08803e+00        1.24693e+00        0.00000e+00 
 148.40        3.07823e+00        1.25550e+00        0.00000e+00 
 149.10        3.06839e+00        1.26403e+00        0.00000e+00 
 149.80        3.05851e+00        1.27251e+00        0.00000e+00 
 150.50        3.04860e+00        1.28096e+00        0.00000e+00 
 151.20        3.03866e+00        1.28936e+00        0.00000e+00 
 151.90        3.02869e+00        1.29772e+00        0.00000e+00 
 152.60        3.01869e+00        1.30604e+00        0.00000e+00 
 153.30        3.00866e+00        1.31432e+00        0.00000e+00 
 154.00        2.99859e+00        1.32255e+00        0.00000e+00 
 154.70        2.98850e+00        1.33074e+00        0.00000e+00 
 155.40        2.97838e+00        1.33889e+00        0.00000e+00 
 156.10        2.96823e+00        1.34699e+00        0.00000e+00 
 156.80        2.95806e+00        1.35504e+00        0.00000e+00 
 157.50        2.94785e+00        1.36305e+00        0.00000e+00 
 158.20        2.93762e+00        1.37101e+00        0.00000e+00 
 158.90        2.92737e+00        1.37893e+00        0.00000e+00 
 159.60        2.91709e+00        1.38680e+00        0.00000e+00 
 160.30        2.90679e+00        1.39462e+00        0.00000e+00 
 161.00        2.89646e+00        1.40239e+00        0.00000e+00 
 161.70        2.88611e+00        1.41012e+00        0.00000e+00 
 162.40        2.87573e+00        1.41780e+00        0.00000e+00 
 163.10        2.86534e+00        1.42543e+00        0.00000e+00 
 163.80        2.85492e+00        1.43301e+00        0.00000e+00 
 164.50        2.84448e+00        1.44054e+00        0.00000e+00 
 165.20        2.83402e+00        1.44803e+00        0.00000e+00 
 165.90        2.82354e+00        1.45546e+00        0.00000e+00 
 166.60        2.81305e+00        1.46284e+00        0.00000e+00 
 167.30        2.80253e+00        1.47018e+00        0.00000e+00 
 168.00        2.79200e+00        1.47746e+00        0.00000e+00 
 168.70        2.78145e+00        1.48469e+00        0.00000e+00 
 169.40        2.77088e+00        1.49188e+00        0.00000e+00 
 170.10        2.76029e+00        1.49901e+00        0.00000e+00 
 170.80        2.74969e+00        1.50609e+00        0.00000e+00 
 171.50        2.73908e+00        1.51312e+00        0.00000e+00 
 172.20        2.72845e+00        1.52009e+00        0.00000e+00 
 172.90        2.71781e+00        1.52702e+00        0.00000e+00 
 173.60        2.70715e+00        1.53390e+00        0.00000e+00 
 174.30        2.69648e+00        1.54072e+00        0.00000e+00 
 175.00        2.68580e+00        1.54749e+00        0.00000e+00 
 175.70        2.67511e+00        1.55421e+00        0.00000e+00 
 176.40        2.66440e+00        1.56087e+00        0.00000e+00 
 177.10        2.65368e+00        1.56749e+00        0.00000e+00 
 177.80        2.64296e+00        1.57405e+00        0.00000e+00 
 178.50        2.63222e+00        1.58056e+00        0.00000e+00 
 179.20        2.62148e+00        1.58701e+00        0.00000e+00 
 179.90        2.61073e+00        1.59341e+00        0.00000e+00 
 180.60        2.59997e+00        1.59976e+00        0.00000e+00 
 181.30        2.58920e+00        1.60606e+00        0.00000e+00 
 182.00        2.57842e+00        1.61231e+00        0.00000e+00 
 182.70        2.56764e+00        1.61850e+00        0.00000e+00 
 183.40        2.55685e+00        1.62464e+00        0.00000e+00 
 184.10        2.54606e+00        1.63072e+00        0.00000e+00 
 184.80        2.53526e+00        1.63675e+00        0.00000e+00 
 185.50        2.52446e+00        1.64273e+00        0.00000e+00 
 186.20        2.51365e+00        1.64866e+00        0.00000e+00 
 186.90        2.50284e+00        1.65453e+00        0.00000e+00 
 187.60        2.49203e+00        1.66035e+00        0.00000e+00 
 188.30        2.48122e+00        1.66612e+00        0.00000e+00 
 189.00        2.47040e+00        1.67183e+00        0.00000e+00 
 189.70        2.45958e+00        1.67750e+00        0.00000e+00 
 190.40        2.44876e+00        1.68310e+00        0.00000e+00 
 191.10        2.43794e+00        1.68866e+00        0.00000e+00 
 191.80        2.42712e+00        1.69416e+00        0.00000e+00 
 192.50        2.41630e+00        1.69961e+00        0.00000e+00 
 193.20        2.40548e+00        1.70501e+00        0.00000e+00 
 193.90        2.39466e+00        1.71035e+00        0.00000e+00 
 194.60        2.38384e+00        1.71564e+00        0.00000e+00 
 195.30        2.37303e+00        1.72088e+00        0.00000e+00 
 196.00        2.36222e+00        1.72607e+00        0.00000e+00 
 196.70        2.35141e+00        1.73120e+00        0.00000e+00 
 197.40        2.34060e+00        1.73628e+00        0.00000e+00 
 198.10        2.32980e+00        1.74131e+00        0.00000e+00 
 198.80        2.31900e+00        1.74629e+00        0.00000e+00 
 199.50        2.30821e+00        1.75122e+00        0.00000e+00 
 200.20        2.29742e+00        1.75609e+00        0.00000e+00 
 200.90        2.28663e+00        1.76091e+00        0.00000e+00 
 201.60        2.27586e+00        1.76568e+00        0.00000e+00 
 202.30        2.26509e+00        1.77040e+00        0.00000e+00 
 203.00        2.25432e+00        1.77507e+00        0.00000e+00 
 203.70        2.24356e+00        1.77968e+00        0.00000e+00 
 204.40        2.23281e+00        1.78425e+00        0.00000e+00 
 205.10        2.22207e+00        1.78876e+00        0.00000e+00 
 205.80        2.21133e+00        1.79322e+00        0.00000e+00 
 206.50        2.20061e+00        1.79763e+00        0.00000e+00 
 207.20        2.18989e+00        1.80200e+00        0.00000e+00 
 207.90        2.17918e+00        1.80631e+00        0.00000e+00 
 208.60        2.16848e+00        1.81057e+00        0.00000e+00 
 209.30        2.15779e+00        1.81478e+00        0.00000e+00 
 210.00        2.14711e+00        1.81894e+00        0.00000e+00 
 210.70        2.13644e+00        1.82305e+00        0.00000e+00 
 211.40        2.12578e+00        1.82711e+00        0.00000e+00 
