#Navio B MarAd
#Manobra de Curva Giro
#
#Velocidade Inercial
#
#temp           u           v           r
 0.00        4.11000e+00        0.00000e+00        0.00000e+00 
 0.70        4.11000e+00        8.41340e-05        0.00000e+00 
 1.40        4.11000e+00        1.65392e-04        0.00000e+00 
 2.10        4.10816e+00        -2.69179e-03        0.00000e+00 
 2.80        4.10632e+00        -5.45064e-03        0.00000e+00 
 3.50        4.10448e+00        -8.11147e-03        0.00000e+00 
 4.20        4.10265e+00        -1.06746e-02        0.00000e+00 
 4.90        4.10082e+00        -1.31402e-02        0.00000e+00 
 5.60        4.09899e+00        -1.55086e-02        0.00000e+00 
 6.30        4.09716e+00        -1.77801e-02        0.00000e+00 
 7.00        4.09534e+00        -1.99549e-02        0.00000e+00 
 7.70        4.09352e+00        -2.20331e-02        0.00000e+00 
 8.40        4.09170e+00        -2.40151e-02        0.00000e+00 
 9.10        4.08988e+00        -2.59009e-02        0.00000e+00 
 9.80        4.08806e+00        -2.76909e-02        0.00000e+00 
 10.50        4.08624e+00        -2.93850e-02        0.00000e+00 
 11.20        4.08443e+00        -3.09836e-02        0.00000e+00 
 11.90        4.08261e+00        -3.24867e-02        0.00000e+00 
 12.60        4.08080e+00        -3.38945e-02        0.00000e+00 
 13.30        4.07898e+00        -3.52071e-02        0.00000e+00 
 14.00        4.07717e+00        -3.64246e-02        0.00000e+00 
 14.70        4.07535e+00        -3.75472e-02        0.00000e+00 
 15.40        4.07354e+00        -3.85749e-02        0.00000e+00 
 16.10        4.07172e+00        -3.95078e-02        0.00000e+00 
 16.80        4.06990e+00        -4.03461e-02        0.00000e+00 
 17.50        4.06808e+00        -4.10897e-02        0.00000e+00 
 18.20        4.06626e+00        -4.17389e-02        0.00000e+00 
 18.90        4.06444e+00        -4.22936e-02        0.00000e+00 
 19.60        4.06261e+00        -4.27539e-02        0.00000e+00 
 20.30        4.06078e+00        -4.31199e-02        0.00000e+00 
 21.00        4.05895e+00        -4.33916e-02        0.00000e+00 
 21.70        4.05712e+00        -4.35691e-02        0.00000e+00 
 22.40        4.05528e+00        -4.36524e-02        0.00000e+00 
 23.10        4.05343e+00        -4.36416e-02        0.00000e+00 
 23.80        4.05158e+00        -4.35368e-02        0.00000e+00 
 24.50        4.04973e+00        -4.33379e-02        0.00000e+00 
 25.20        4.04787e+00        -4.30451e-02        0.00000e+00 
 25.90        4.04600e+00        -4.26583e-02        0.00000e+00 
 26.60        4.04413e+00        -4.21777e-02        0.00000e+00 
 27.30        4.04225e+00        -4.16032e-02        0.00000e+00 
 28.00        4.04036e+00        -4.09349e-02        0.00000e+00 
 28.70        4.03847e+00        -4.01729e-02        0.00000e+00 
 29.40        4.03657e+00        -3.93172e-02        0.00000e+00 
 30.10        4.03465e+00        -3.83679e-02        0.00000e+00 
 30.80        4.03273e+00        -3.73249e-02        0.00000e+00 
 31.50        4.03080e+00        -3.61885e-02        0.00000e+00 
 32.20        4.02886e+00        -3.49586e-02        0.00000e+00 
 32.90        4.02690e+00        -3.36353e-02        0.00000e+00 
 33.60        4.02494e+00        -3.22186e-02        0.00000e+00 
 34.30        4.02296e+00        -3.07088e-02        0.00000e+00 
 35.00        4.02097e+00        -2.91058e-02        0.00000e+00 
 35.70        4.01897e+00        -2.74097e-02        0.00000e+00 
 36.40        4.01695e+00        -2.56206e-02        0.00000e+00 
 37.10        4.01492e+00        -2.37386e-02        0.00000e+00 
 37.80        4.01288e+00        -2.17639e-02        0.00000e+00 
 38.50        4.01081e+00        -1.96966e-02        0.00000e+00 
 39.20        4.00874e+00        -1.75367e-02        0.00000e+00 
 39.90        4.00664e+00        -1.52844e-02        0.00000e+00 
 40.60        4.00453e+00        -1.29399e-02        0.00000e+00 
 41.30        4.00241e+00        -1.05032e-02        0.00000e+00 
 42.00        4.00026e+00        -7.97464e-03        0.00000e+00 
 42.70        3.99809e+00        -5.35429e-03        0.00000e+00 
 43.40        3.99591e+00        -2.64234e-03        0.00000e+00 
 44.10        3.99370e+00        1.61010e-04        0.00000e+00 
 44.80        3.99148e+00        3.05557e-03        0.00000e+00 
 45.50        3.98923e+00        6.04112e-03        0.00000e+00 
 46.20        3.98696e+00        9.11745e-03        0.00000e+00 
 46.90        3.98467e+00        1.22843e-02        0.00000e+00 
 47.60        3.98236e+00        1.55415e-02        0.00000e+00 
 48.30        3.98002e+00        1.88887e-02        0.00000e+00 
 49.00        3.97765e+00        2.23256e-02        0.00000e+00 
 49.70        3.97527e+00        2.58521e-02        0.00000e+00 
 50.40        3.97285e+00        2.94677e-02        0.00000e+00 
 51.10        3.97041e+00        3.31723e-02        0.00000e+00 
 51.80        3.96794e+00        3.69654e-02        0.00000e+00 
 52.50        3.96545e+00        4.08467e-02        0.00000e+00 
 53.20        3.96293e+00        4.48159e-02        0.00000e+00 
 53.90        3.96038e+00        4.88726e-02        0.00000e+00 
 54.60        3.95780e+00        5.30165e-02        0.00000e+00 
 55.30        3.95518e+00        5.72472e-02        0.00000e+00 
 56.00        3.95254e+00        6.15642e-02        0.00000e+00 
 56.70        3.94987e+00        6.59671e-02        0.00000e+00 
 57.40        3.94716e+00        7.04556e-02        0.00000e+00 
 58.10        3.94443e+00        7.50291e-02        0.00000e+00 
 58.80        3.94166e+00        7.96872e-02        0.00000e+00 
 59.50        3.93885e+00        8.44295e-02        0.00000e+00 
 60.20        3.93601e+00        8.92553e-02        0.00000e+00 
 60.90        3.93314e+00        9.41644e-02        0.00000e+00 
 61.60        3.93023e+00        9.91560e-02        0.00000e+00 
 62.30        3.92728e+00        1.04230e-01        0.00000e+00 
 63.00        3.92430e+00        1.09385e-01        0.00000e+00 
 63.70        3.92128e+00        1.14621e-01        0.00000e+00 
 64.40        3.91822e+00        1.19938e-01        0.00000e+00 
 65.10        3.91512e+00        1.25334e-01        0.00000e+00 
 65.80        3.91199e+00        1.30810e-01        0.00000e+00 
 66.50        3.90881e+00        1.36364e-01        0.00000e+00 
 67.20        3.90559e+00        1.41996e-01        0.00000e+00 
 67.90        3.90234e+00        1.47705e-01        0.00000e+00 
 68.60        3.89904e+00        1.53491e-01        0.00000e+00 
 69.30        3.89569e+00        1.59353e-01        0.00000e+00 
 70.00        3.89231e+00        1.65290e-01        0.00000e+00 
 70.70        3.88888e+00        1.71302e-01        0.00000e+00 
 71.40        3.88541e+00        1.77387e-01        0.00000e+00 
 72.10        3.88190e+00        1.83545e-01        0.00000e+00 
 72.80        3.87834e+00        1.89776e-01        0.00000e+00 
 73.50        3.87473e+00        1.96078e-01        0.00000e+00 
 74.20        3.87108e+00        2.02451e-01        0.00000e+00 
 74.90        3.86738e+00        2.08894e-01        0.00000e+00 
 75.60        3.86364e+00        2.15407e-01        0.00000e+00 
 76.30        3.85985e+00        2.21987e-01        0.00000e+00 
 77.00        3.85601e+00        2.28635e-01        0.00000e+00 
 77.70        3.85212e+00        2.35349e-01        0.00000e+00 
 78.40        3.84819e+00        2.42130e-01        0.00000e+00 
 79.10        3.84420e+00        2.48975e-01        0.00000e+00 
 79.80        3.84017e+00        2.55884e-01        0.00000e+00 
 80.50        3.83608e+00        2.62857e-01        0.00000e+00 
 81.20        3.83195e+00        2.69892e-01        0.00000e+00 
 81.90        3.82776e+00        2.76988e-01        0.00000e+00 
 82.60        3.82352e+00        2.84144e-01        0.00000e+00 
 83.30        3.81924e+00        2.91360e-01        0.00000e+00 
 84.00        3.81489e+00        2.98634e-01        0.00000e+00 
 84.70        3.81050e+00        3.05966e-01        0.00000e+00 
 85.40        3.80606e+00        3.13354e-01        0.00000e+00 
 86.10        3.80156e+00        3.20798e-01        0.00000e+00 
 86.80        3.79701e+00        3.28297e-01        0.00000e+00 
 87.50        3.79240e+00        3.35849e-01        0.00000e+00 
 88.20        3.78774e+00        3.43454e-01        0.00000e+00 
 88.90        3.78303e+00        3.51110e-01        0.00000e+00 
 89.60        3.77826e+00        3.58817e-01        0.00000e+00 
 90.30        3.77344e+00        3.66574e-01        0.00000e+00 
 91.00        3.76857e+00        3.74379e-01        0.00000e+00 
 91.70        3.76363e+00        3.82231e-01        0.00000e+00 
 92.40        3.75865e+00        3.90130e-01        0.00000e+00 
 93.10        3.75360e+00        3.98074e-01        0.00000e+00 
 93.80        3.74851e+00        4.06063e-01        0.00000e+00 
 94.50        3.74335e+00        4.14095e-01        0.00000e+00 
 95.20        3.73814e+00        4.22168e-01        0.00000e+00 
 95.90        3.73287e+00        4.30283e-01        0.00000e+00 
 96.60        3.72755e+00        4.38438e-01        0.00000e+00 
 97.30        3.72217e+00        4.46632e-01        0.00000e+00 
 98.00        3.71673e+00        4.54863e-01        0.00000e+00 
 98.70        3.71124e+00        4.63132e-01        0.00000e+00 
 99.40        3.70569e+00        4.71435e-01        0.00000e+00 
 100.10        3.70009e+00        4.79774e-01        0.00000e+00 
 100.80        3.69442e+00        4.88146e-01        0.00000e+00 
 101.50        3.68870e+00        4.96550e-01        0.00000e+00 
 102.20        3.68292e+00        5.04985e-01        0.00000e+00 
 102.90        3.67709e+00        5.13450e-01        0.00000e+00 
 103.60        3.67120e+00        5.21945e-01        0.00000e+00 
 104.30        3.66525e+00        5.30467e-01        0.00000e+00 
 105.00        3.65924e+00        5.39016e-01        0.00000e+00 
 105.70        3.65318e+00        5.47590e-01        0.00000e+00 
 106.40        3.64706e+00        5.56189e-01        0.00000e+00 
 107.10        3.64088e+00        5.64812e-01        0.00000e+00 
 107.80        3.63465e+00        5.73457e-01        0.00000e+00 
 108.50        3.62836e+00        5.82123e-01        0.00000e+00 
 109.20        3.62201e+00        5.90810e-01        0.00000e+00 
 109.90        3.61561e+00        5.99515e-01        0.00000e+00 
 110.60        3.60915e+00        6.08238e-01        0.00000e+00 
 111.30        3.60264e+00        6.16978e-01        0.00000e+00 
 112.00        3.59606e+00        6.25734e-01        0.00000e+00 
 112.70        3.58944e+00        6.34505e-01        0.00000e+00 
 113.40        3.58275e+00        6.43289e-01        0.00000e+00 
 114.10        3.57601e+00        6.52086e-01        0.00000e+00 
 114.80        3.56922e+00        6.60894e-01        0.00000e+00 
 115.50        3.56237e+00        6.69712e-01        0.00000e+00 
 116.20        3.55547e+00        6.78540e-01        0.00000e+00 
 116.90        3.54851e+00        6.87376e-01        0.00000e+00 
 117.60        3.54150e+00        6.96220e-01        0.00000e+00 
 118.30        3.53443e+00        7.05069e-01        0.00000e+00 
 119.00        3.52731e+00        7.13923e-01        0.00000e+00 
 119.70        3.52013e+00        7.22782e-01        0.00000e+00 
 120.40        3.51290e+00        7.31644e-01        0.00000e+00 
 121.10        3.50562e+00        7.40507e-01        0.00000e+00 
 121.80        3.49829e+00        7.49372e-01        0.00000e+00 
 122.50        3.49090e+00        7.58237e-01        0.00000e+00 
 123.20        3.48347e+00        7.67101e-01        0.00000e+00 
 123.90        3.47598e+00        7.75962e-01        0.00000e+00 
 124.60        3.46843e+00        7.84821e-01        0.00000e+00 
 125.30        3.46084e+00        7.93676e-01        0.00000e+00 
 126.00        3.45320e+00        8.02526e-01        0.00000e+00 
 126.70        3.44551e+00        8.11370e-01        0.00000e+00 
 127.40        3.43776e+00        8.20208e-01        0.00000e+00 
 128.10        3.42997e+00        8.29038e-01        0.00000e+00 
 128.80        3.42213e+00        8.37859e-01        0.00000e+00 
 129.50        3.41424e+00        8.46670e-01        0.00000e+00 
 130.20        3.40631e+00        8.55471e-01        0.00000e+00 
 130.90        3.39832e+00        8.64261e-01        0.00000e+00 
 131.60        3.39029e+00        8.73038e-01        0.00000e+00 
 132.30        3.38221e+00        8.81803e-01        0.00000e+00 
 133.00        3.37408e+00        8.90553e-01        0.00000e+00 
 133.70        3.36591e+00        8.99289e-01        0.00000e+00 
 134.40        3.35769e+00        9.08009e-01        0.00000e+00 
 135.10        3.34943e+00        9.16712e-01        0.00000e+00 
 135.80        3.34113e+00        9.25398e-01        0.00000e+00 
 136.50        3.33278e+00        9.34066e-01        0.00000e+00 
 137.20        3.32438e+00        9.42715e-01        0.00000e+00 
 137.90        3.31595e+00        9.51344e-01        0.00000e+00 
 138.60        3.30747e+00        9.59953e-01        0.00000e+00 
 139.30        3.29894e+00        9.68540e-01        0.00000e+00 
 140.00        3.29038e+00        9.77106e-01        0.00000e+00 
 140.70        3.28178e+00        9.85648e-01        0.00000e+00 
 141.40        3.27314e+00        9.94168e-01        0.00000e+00 
 142.10        3.26445e+00        1.00266e+00        0.00000e+00 
 142.80        3.25573e+00        1.01113e+00        0.00000e+00 
 143.50        3.24697e+00        1.01958e+00        0.00000e+00 
 144.20        3.23817e+00        1.02800e+00        0.00000e+00 
 144.90        3.22933e+00        1.03639e+00        0.00000e+00 
 145.60        3.22046e+00        1.04475e+00        0.00000e+00 
 146.30        3.21154e+00        1.05309e+00        0.00000e+00 
 147.00        3.20260e+00        1.06139e+00        0.00000e+00 
 147.70        3.19361e+00        1.06967e+00        0.00000e+00 
 148.40        3.18460e+00        1.07792e+00        0.00000e+00 
 149.10        3.17555e+00        1.08613e+00        0.00000e+00 
 149.80        3.16646e+00        1.09432e+00        0.00000e+00 
 150.50        3.15734e+00        1.10247e+00        0.00000e+00 
 151.20        3.14819e+00        1.11059e+00        0.00000e+00 
 151.90        3.13901e+00        1.11868e+00        0.00000e+00 
 152.60        3.12979e+00        1.12673e+00        0.00000e+00 
 153.30        3.12055e+00        1.13475e+00        0.00000e+00 
 154.00        3.11127e+00        1.14274e+00        0.00000e+00 
 154.70        3.10197e+00        1.15069e+00        0.00000e+00 
 155.40        3.09263e+00        1.15860e+00        0.00000e+00 
 156.10        3.08327e+00        1.16648e+00        0.00000e+00 
 156.80        3.07388e+00        1.17432e+00        0.00000e+00 
 157.50        3.06446e+00        1.18213e+00        0.00000e+00 
 158.20        3.05502e+00        1.18989e+00        0.00000e+00 
 158.90        3.04555e+00        1.19762e+00        0.00000e+00 
 159.60        3.03605e+00        1.20531e+00        0.00000e+00 
 160.30        3.02653e+00        1.21297e+00        0.00000e+00 
 161.00        3.01698e+00        1.22058e+00        0.00000e+00 
 161.70        3.00741e+00        1.22816e+00        0.00000e+00 
 162.40        2.99782e+00        1.23569e+00        0.00000e+00 
 163.10        2.98820e+00        1.24318e+00        0.00000e+00 
 163.80        2.97856e+00        1.25064e+00        0.00000e+00 
 164.50        2.96890e+00        1.25805e+00        0.00000e+00 
 165.20        2.95922e+00        1.26542e+00        0.00000e+00 
 165.90        2.94952e+00        1.27275e+00        0.00000e+00 
 166.60        2.93980e+00        1.28004e+00        0.00000e+00 
 167.30        2.93006e+00        1.28729e+00        0.00000e+00 
 168.00        2.92030e+00        1.29449e+00        0.00000e+00 
 168.70        2.91053e+00        1.30165e+00        0.00000e+00 
 169.40        2.90073e+00        1.30877e+00        0.00000e+00 
 170.10        2.89092e+00        1.31584e+00        0.00000e+00 
 170.80        2.88109e+00        1.32288e+00        0.00000e+00 
 171.50        2.87125e+00        1.32986e+00        0.00000e+00 
 172.20        2.86139e+00        1.33681e+00        0.00000e+00 
 172.90        2.85151e+00        1.34371e+00        0.00000e+00 
 173.60        2.84163e+00        1.35056e+00        0.00000e+00 
 174.30        2.83172e+00        1.35737e+00        0.00000e+00 
 175.00        2.82181e+00        1.36414e+00        0.00000e+00 
 175.70        2.81188e+00        1.37086e+00        0.00000e+00 
 176.40        2.80194e+00        1.37753e+00        0.00000e+00 
 177.10        2.79199e+00        1.38417e+00        0.00000e+00 
 177.80        2.78203e+00        1.39075e+00        0.00000e+00 
 178.50        2.77205e+00        1.39729e+00        0.00000e+00 
 179.20        2.76207e+00        1.40378e+00        0.00000e+00 
 179.90        2.75208e+00        1.41023e+00        0.00000e+00 
 180.60        2.74208e+00        1.41663e+00        0.00000e+00 
 181.30        2.73207e+00        1.42299e+00        0.00000e+00 
 182.00        2.72205e+00        1.42930e+00        0.00000e+00 
 182.70        2.71203e+00        1.43556e+00        0.00000e+00 
 183.40        2.70199e+00        1.44178e+00        0.00000e+00 
 184.10        2.69196e+00        1.44795e+00        0.00000e+00 
 184.80        2.68191e+00        1.45408e+00        0.00000e+00 
 185.50        2.67186e+00        1.46016e+00        0.00000e+00 
 186.20        2.66181e+00        1.46619e+00        0.00000e+00 
 186.90        2.65175e+00        1.47217e+00        0.00000e+00 
 187.60        2.64168e+00        1.47811e+00        0.00000e+00 
 188.30        2.63162e+00        1.48400e+00        0.00000e+00 
 189.00        2.62155e+00        1.48985e+00        0.00000e+00 
 189.70        2.61148e+00        1.49565e+00        0.00000e+00 
 190.40        2.60140e+00        1.50140e+00        0.00000e+00 
 191.10        2.59132e+00        1.50710e+00        0.00000e+00 
 191.80        2.58125e+00        1.51276e+00        0.00000e+00 
 192.50        2.57117e+00        1.51837e+00        0.00000e+00 
 193.20        2.56109e+00        1.52394e+00        0.00000e+00 
 193.90        2.55101e+00        1.52946e+00        0.00000e+00 
 194.60        2.54093e+00        1.53493e+00        0.00000e+00 
 195.30        2.53085e+00        1.54035e+00        0.00000e+00 
 196.00        2.52078e+00        1.54573e+00        0.00000e+00 
 196.70        2.51070e+00        1.55106e+00        0.00000e+00 
 197.40        2.50063e+00        1.55635e+00        0.00000e+00 
 198.10        2.49056e+00        1.56159e+00        0.00000e+00 
 198.80        2.48049e+00        1.56678e+00        0.00000e+00 
 199.50        2.47043e+00        1.57192e+00        0.00000e+00 
 200.20        2.46037e+00        1.57702e+00        0.00000e+00 
 200.90        2.45031e+00        1.58208e+00        0.00000e+00 
 201.60        2.44026e+00        1.58709e+00        0.00000e+00 
 202.30        2.43022e+00        1.59205e+00        0.00000e+00 
 203.00        2.42018e+00        1.59696e+00        0.00000e+00 
 203.70        2.41014e+00        1.60184e+00        0.00000e+00 
 204.40        2.40011e+00        1.60666e+00        0.00000e+00 
 205.10        2.39009e+00        1.61144e+00        0.00000e+00 
 205.80        2.38007e+00        1.61617e+00        0.00000e+00 
 206.50        2.37006e+00        1.62086e+00        0.00000e+00 
 207.20        2.36006e+00        1.62550e+00        0.00000e+00 
 207.90        2.35006e+00        1.63010e+00        0.00000e+00 
 208.60        2.34008e+00        1.63466e+00        0.00000e+00 
 209.30        2.33010e+00        1.63916e+00        0.00000e+00 
 210.00        2.32013e+00        1.64363e+00        0.00000e+00 
 210.70        2.31017e+00        1.64805e+00        0.00000e+00 
