#Navio B MarAd
#Manobra de Curva Giro
#
#Velocidade Sistema Solidário 
#
#temp           u           v           w    dot roll   dot pitch     dot yaw 
 0.00        4.11000e+00        0.00000e+00        0.00000e+00        0.00000e+00        0.00000e+00        0.00000e+00 
 0.70        4.11000e+00        8.68188e-05        0.00000e+00        0.00000e+00        0.00000e+00        -1.86403e-06 
 1.40        4.11000e+00        1.76104e-04        0.00000e+00        0.00000e+00        0.00000e+00        -3.71391e-06 
 2.10        4.10816e+00        -2.76063e-03        0.00000e+00        0.00000e+00        0.00000e+00        5.89507e-05 
 2.80        4.10632e+00        -5.77835e-03        0.00000e+00        0.00000e+00        0.00000e+00        1.21107e-04 
 3.50        4.10448e+00        -8.87568e-03        0.00000e+00        0.00000e+00        0.00000e+00        1.82765e-04 
 4.20        4.10265e+00        -1.20513e-02        0.00000e+00        0.00000e+00        0.00000e+00        2.43934e-04 
 4.90        4.10081e+00        -1.53037e-02        0.00000e+00        0.00000e+00        0.00000e+00        3.04626e-04 
 5.60        4.09898e+00        -1.86318e-02        0.00000e+00        0.00000e+00        0.00000e+00        3.64849e-04 
 6.30        4.09714e+00        -2.20340e-02        0.00000e+00        0.00000e+00        0.00000e+00        4.24611e-04 
 7.00        4.09531e+00        -2.55093e-02        0.00000e+00        0.00000e+00        0.00000e+00        4.83923e-04 
 7.70        4.09347e+00        -2.90562e-02        0.00000e+00        0.00000e+00        0.00000e+00        5.42792e-04 
 8.40        4.09164e+00        -3.26734e-02        0.00000e+00        0.00000e+00        0.00000e+00        6.01227e-04 
 9.10        4.08980e+00        -3.63598e-02        0.00000e+00        0.00000e+00        0.00000e+00        6.59236e-04 
 9.80        4.08796e+00        -4.01140e-02        0.00000e+00        0.00000e+00        0.00000e+00        7.16826e-04 
 10.50        4.08611e+00        -4.39348e-02        0.00000e+00        0.00000e+00        0.00000e+00        7.74005e-04 
 11.20        4.08426e+00        -4.78211e-02        0.00000e+00        0.00000e+00        0.00000e+00        8.30779e-04 
 11.90        4.08241e+00        -5.17714e-02        0.00000e+00        0.00000e+00        0.00000e+00        8.87156e-04 
 12.60        4.08055e+00        -5.57848e-02        0.00000e+00        0.00000e+00        0.00000e+00        9.43143e-04 
 13.30        4.07869e+00        -5.98598e-02        0.00000e+00        0.00000e+00        0.00000e+00        9.98744e-04 
 14.00        4.07683e+00        -6.39955e-02        0.00000e+00        0.00000e+00        0.00000e+00        1.05397e-03 
 14.70        4.07495e+00        -6.81905e-02        0.00000e+00        0.00000e+00        0.00000e+00        1.10882e-03 
 15.40        4.07307e+00        -7.24437e-02        0.00000e+00        0.00000e+00        0.00000e+00        1.16330e-03 
 16.10        4.07119e+00        -7.67539e-02        0.00000e+00        0.00000e+00        0.00000e+00        1.21743e-03 
 16.80        4.06929e+00        -8.11201e-02        0.00000e+00        0.00000e+00        0.00000e+00        1.27119e-03 
 17.50        4.06739e+00        -8.55409e-02        0.00000e+00        0.00000e+00        0.00000e+00        1.32461e-03 
 18.20        4.06548e+00        -9.00154e-02        0.00000e+00        0.00000e+00        0.00000e+00        1.37768e-03 
 18.90        4.06356e+00        -9.45423e-02        0.00000e+00        0.00000e+00        0.00000e+00        1.43040e-03 
 19.60        4.06163e+00        -9.91205e-02        0.00000e+00        0.00000e+00        0.00000e+00        1.48279e-03 
 20.30        4.05969e+00        -1.03749e-01        0.00000e+00        0.00000e+00        0.00000e+00        1.53484e-03 
 21.00        4.05774e+00        -1.08426e-01        0.00000e+00        0.00000e+00        0.00000e+00        1.58657e-03 
 21.70        4.05577e+00        -1.13152e-01        0.00000e+00        0.00000e+00        0.00000e+00        1.63797e-03 
 22.40        4.05380e+00        -1.17924e-01        0.00000e+00        0.00000e+00        0.00000e+00        1.68905e-03 
 23.10        4.05181e+00        -1.22743e-01        0.00000e+00        0.00000e+00        0.00000e+00        1.73980e-03 
 23.80        4.04981e+00        -1.27605e-01        0.00000e+00        0.00000e+00        0.00000e+00        1.79024e-03 
 24.50        4.04779e+00        -1.32512e-01        0.00000e+00        0.00000e+00        0.00000e+00        1.84037e-03 
 25.20        4.04576e+00        -1.37461e-01        0.00000e+00        0.00000e+00        0.00000e+00        1.89019e-03 
 25.90        4.04372e+00        -1.42451e-01        0.00000e+00        0.00000e+00        0.00000e+00        1.93970e-03 
 26.60        4.04166e+00        -1.47482e-01        0.00000e+00        0.00000e+00        0.00000e+00        1.98891e-03 
 27.30        4.03959e+00        -1.52552e-01        0.00000e+00        0.00000e+00        0.00000e+00        2.03781e-03 
 28.00        4.03750e+00        -1.57661e-01        0.00000e+00        0.00000e+00        0.00000e+00        2.08642e-03 
 28.70        4.03539e+00        -1.62807e-01        0.00000e+00        0.00000e+00        0.00000e+00        2.13472e-03 
 29.40        4.03326e+00        -1.67988e-01        0.00000e+00        0.00000e+00        0.00000e+00        2.18273e-03 
 30.10        4.03112e+00        -1.73205e-01        0.00000e+00        0.00000e+00        0.00000e+00        2.23045e-03 
 30.80        4.02895e+00        -1.78456e-01        0.00000e+00        0.00000e+00        0.00000e+00        2.27787e-03 
 31.50        4.02677e+00        -1.83740e-01        0.00000e+00        0.00000e+00        0.00000e+00        2.32500e-03 
 32.20        4.02457e+00        -1.89056e-01        0.00000e+00        0.00000e+00        0.00000e+00        2.37184e-03 
 32.90        4.02235e+00        -1.94404e-01        0.00000e+00        0.00000e+00        0.00000e+00        2.41839e-03 
 33.60        4.02011e+00        -1.99781e-01        0.00000e+00        0.00000e+00        0.00000e+00        2.46466e-03 
 34.30        4.01784e+00        -2.05187e-01        0.00000e+00        0.00000e+00        0.00000e+00        2.51064e-03 
 35.00        4.01556e+00        -2.10620e-01        0.00000e+00        0.00000e+00        0.00000e+00        2.55633e-03 
 35.70        4.01325e+00        -2.16081e-01        0.00000e+00        0.00000e+00        0.00000e+00        2.60174e-03 
 36.40        4.01092e+00        -2.21568e-01        0.00000e+00        0.00000e+00        0.00000e+00        2.64687e-03 
 37.10        4.00856e+00        -2.27080e-01        0.00000e+00        0.00000e+00        0.00000e+00        2.69171e-03 
 37.80        4.00619e+00        -2.32615e-01        0.00000e+00        0.00000e+00        0.00000e+00        2.73627e-03 
 38.50        4.00379e+00        -2.38174e-01        0.00000e+00        0.00000e+00        0.00000e+00        2.78055e-03 
 39.20        4.00136e+00        -2.43754e-01        0.00000e+00        0.00000e+00        0.00000e+00        2.82454e-03 
 39.90        3.99891e+00        -2.49356e-01        0.00000e+00        0.00000e+00        0.00000e+00        2.86826e-03 
 40.60        3.99643e+00        -2.54977e-01        0.00000e+00        0.00000e+00        0.00000e+00        2.91169e-03 
 41.30        3.99393e+00        -2.60618e-01        0.00000e+00        0.00000e+00        0.00000e+00        2.95484e-03 
 42.00        3.99139e+00        -2.66276e-01        0.00000e+00        0.00000e+00        0.00000e+00        2.99771e-03 
 42.70        3.98884e+00        -2.71952e-01        0.00000e+00        0.00000e+00        0.00000e+00        3.04030e-03 
 43.40        3.98625e+00        -2.77643e-01        0.00000e+00        0.00000e+00        0.00000e+00        3.08261e-03 
 44.10        3.98364e+00        -2.83350e-01        0.00000e+00        0.00000e+00        0.00000e+00        3.12463e-03 
 44.80        3.98100e+00        -2.89071e-01        0.00000e+00        0.00000e+00        0.00000e+00        3.16638e-03 
 45.50        3.97833e+00        -2.94806e-01        0.00000e+00        0.00000e+00        0.00000e+00        3.20784e-03 
 46.20        3.97563e+00        -3.00552e-01        0.00000e+00        0.00000e+00        0.00000e+00        3.24902e-03 
 46.90        3.97290e+00        -3.06310e-01        0.00000e+00        0.00000e+00        0.00000e+00        3.28991e-03 
 47.60        3.97014e+00        -3.12079e-01        0.00000e+00        0.00000e+00        0.00000e+00        3.33053e-03 
 48.30        3.96735e+00        -3.17857e-01        0.00000e+00        0.00000e+00        0.00000e+00        3.37085e-03 
 49.00        3.96453e+00        -3.23644e-01        0.00000e+00        0.00000e+00        0.00000e+00        3.41090e-03 
 49.70        3.96168e+00        -3.29438e-01        0.00000e+00        0.00000e+00        0.00000e+00        3.45066e-03 
 50.40        3.95879e+00        -3.35239e-01        0.00000e+00        0.00000e+00        0.00000e+00        3.49013e-03 
 51.10        3.95588e+00        -3.41046e-01        0.00000e+00        0.00000e+00        0.00000e+00        3.52932e-03 
 51.80        3.95293e+00        -3.46859e-01        0.00000e+00        0.00000e+00        0.00000e+00        3.56822e-03 
 52.50        3.94995e+00        -3.52675e-01        0.00000e+00        0.00000e+00        0.00000e+00        3.60683e-03 
 53.20        3.94693e+00        -3.58494e-01        0.00000e+00        0.00000e+00        0.00000e+00        3.64515e-03 
 53.90        3.94389e+00        -3.64316e-01        0.00000e+00        0.00000e+00        0.00000e+00        3.68319e-03 
 54.60        3.94081e+00        -3.70139e-01        0.00000e+00        0.00000e+00        0.00000e+00        3.72093e-03 
 55.30        3.93769e+00        -3.75963e-01        0.00000e+00        0.00000e+00        0.00000e+00        3.75838e-03 
 56.00        3.93454e+00        -3.81787e-01        0.00000e+00        0.00000e+00        0.00000e+00        3.79554e-03 
 56.70        3.93136e+00        -3.87609e-01        0.00000e+00        0.00000e+00        0.00000e+00        3.83241e-03 
 57.40        3.92814e+00        -3.93430e-01        0.00000e+00        0.00000e+00        0.00000e+00        3.86898e-03 
 58.10        3.92489e+00        -3.99248e-01        0.00000e+00        0.00000e+00        0.00000e+00        3.90526e-03 
 58.80        3.92160e+00        -4.05062e-01        0.00000e+00        0.00000e+00        0.00000e+00        3.94124e-03 
 59.50        3.91827e+00        -4.10872e-01        0.00000e+00        0.00000e+00        0.00000e+00        3.97693e-03 
 60.20        3.91491e+00        -4.16676e-01        0.00000e+00        0.00000e+00        0.00000e+00        4.01232e-03 
 60.90        3.91152e+00        -4.22474e-01        0.00000e+00        0.00000e+00        0.00000e+00        4.04741e-03 
 61.60        3.90808e+00        -4.28266e-01        0.00000e+00        0.00000e+00        0.00000e+00        4.08220e-03 
 62.30        3.90461e+00        -4.34050e-01        0.00000e+00        0.00000e+00        0.00000e+00        4.11669e-03 
 63.00        3.90111e+00        -4.39825e-01        0.00000e+00        0.00000e+00        0.00000e+00        4.15088e-03 
 63.70        3.89756e+00        -4.45592e-01        0.00000e+00        0.00000e+00        0.00000e+00        4.18476e-03 
 64.40        3.89398e+00        -4.51348e-01        0.00000e+00        0.00000e+00        0.00000e+00        4.21835e-03 
 65.10        3.89037e+00        -4.57093e-01        0.00000e+00        0.00000e+00        0.00000e+00        4.25163e-03 
 65.80        3.88671e+00        -4.62827e-01        0.00000e+00        0.00000e+00        0.00000e+00        4.28460e-03 
 66.50        3.88302e+00        -4.68549e-01        0.00000e+00        0.00000e+00        0.00000e+00        4.31727e-03 
 67.20        3.87929e+00        -4.74258e-01        0.00000e+00        0.00000e+00        0.00000e+00        4.34964e-03 
 67.90        3.87552e+00        -4.79953e-01        0.00000e+00        0.00000e+00        0.00000e+00        4.38169e-03 
 68.60        3.87172e+00        -4.85633e-01        0.00000e+00        0.00000e+00        0.00000e+00        4.41344e-03 
 69.30        3.86788e+00        -4.91299e-01        0.00000e+00        0.00000e+00        0.00000e+00        4.44488e-03 
 70.00        3.86399e+00        -4.96948e-01        0.00000e+00        0.00000e+00        0.00000e+00        4.47600e-03 
 70.70        3.86007e+00        -5.02581e-01        0.00000e+00        0.00000e+00        0.00000e+00        4.50682e-03 
 71.40        3.85612e+00        -5.08197e-01        0.00000e+00        0.00000e+00        0.00000e+00        4.53733e-03 
 72.10        3.85212e+00        -5.13795e-01        0.00000e+00        0.00000e+00        0.00000e+00        4.56752e-03 
 72.80        3.84809e+00        -5.19374e-01        0.00000e+00        0.00000e+00        0.00000e+00        4.59740e-03 
 73.50        3.84401e+00        -5.24934e-01        0.00000e+00        0.00000e+00        0.00000e+00        4.62697e-03 
 74.20        3.83990e+00        -5.30474e-01        0.00000e+00        0.00000e+00        0.00000e+00        4.65622e-03 
 74.90        3.83575e+00        -5.35994e-01        0.00000e+00        0.00000e+00        0.00000e+00        4.68516e-03 
 75.60        3.83157e+00        -5.41493e-01        0.00000e+00        0.00000e+00        0.00000e+00        4.71379e-03 
 76.30        3.82734e+00        -5.46969e-01        0.00000e+00        0.00000e+00        0.00000e+00        4.74209e-03 
 77.00        3.82308e+00        -5.52424e-01        0.00000e+00        0.00000e+00        0.00000e+00        4.77009e-03 
 77.70        3.81877e+00        -5.57855e-01        0.00000e+00        0.00000e+00        0.00000e+00        4.79776e-03 
 78.40        3.81443e+00        -5.63263e-01        0.00000e+00        0.00000e+00        0.00000e+00        4.82512e-03 
 79.10        3.81005e+00        -5.68647e-01        0.00000e+00        0.00000e+00        0.00000e+00        4.85216e-03 
 79.80        3.80564e+00        -5.74006e-01        0.00000e+00        0.00000e+00        0.00000e+00        4.87888e-03 
 80.50        3.80118e+00        -5.79340e-01        0.00000e+00        0.00000e+00        0.00000e+00        4.90528e-03 
 81.20        3.79669e+00        -5.84649e-01        0.00000e+00        0.00000e+00        0.00000e+00        4.93137e-03 
 81.90        3.79216e+00        -5.89931e-01        0.00000e+00        0.00000e+00        0.00000e+00        4.95713e-03 
 82.60        3.78759e+00        -5.95186e-01        0.00000e+00        0.00000e+00        0.00000e+00        4.98258e-03 
 83.30        3.78298e+00        -6.00413e-01        0.00000e+00        0.00000e+00        0.00000e+00        5.00771e-03 
 84.00        3.77834e+00        -6.05613e-01        0.00000e+00        0.00000e+00        0.00000e+00        5.03252e-03 
 84.70        3.77366e+00        -6.10785e-01        0.00000e+00        0.00000e+00        0.00000e+00        5.05701e-03 
 85.40        3.76894e+00        -6.15927e-01        0.00000e+00        0.00000e+00        0.00000e+00        5.08118e-03 
 86.10        3.76418e+00        -6.21041e-01        0.00000e+00        0.00000e+00        0.00000e+00        5.10503e-03 
 86.80        3.75939e+00        -6.26124e-01        0.00000e+00        0.00000e+00        0.00000e+00        5.12856e-03 
 87.50        3.75456e+00        -6.31178e-01        0.00000e+00        0.00000e+00        0.00000e+00        5.15177e-03 
 88.20        3.74970e+00        -6.36201e-01        0.00000e+00        0.00000e+00        0.00000e+00        5.17466e-03 
 88.90        3.74479e+00        -6.41192e-01        0.00000e+00        0.00000e+00        0.00000e+00        5.19723e-03 
 89.60        3.73986e+00        -6.46153e-01        0.00000e+00        0.00000e+00        0.00000e+00        5.21949e-03 
 90.30        3.73488e+00        -6.51081e-01        0.00000e+00        0.00000e+00        0.00000e+00        5.24143e-03 
 91.00        3.72987e+00        -6.55977e-01        0.00000e+00        0.00000e+00        0.00000e+00        5.26304e-03 
 91.70        3.72483e+00        -6.60840e-01        0.00000e+00        0.00000e+00        0.00000e+00        5.28434e-03 
 92.40        3.71975e+00        -6.65671e-01        0.00000e+00        0.00000e+00        0.00000e+00        5.30532e-03 
 93.10        3.71463e+00        -6.70468e-01        0.00000e+00        0.00000e+00        0.00000e+00        5.32599e-03 
 93.80        3.70948e+00        -6.75231e-01        0.00000e+00        0.00000e+00        0.00000e+00        5.34634e-03 
 94.50        3.70430e+00        -6.79960e-01        0.00000e+00        0.00000e+00        0.00000e+00        5.36637e-03 
 95.20        3.69908e+00        -6.84655e-01        0.00000e+00        0.00000e+00        0.00000e+00        5.38609e-03 
 95.90        3.69382e+00        -6.89314e-01        0.00000e+00        0.00000e+00        0.00000e+00        5.40549e-03 
 96.60        3.68854e+00        -6.93939e-01        0.00000e+00        0.00000e+00        0.00000e+00        5.42458e-03 
 97.30        3.68322e+00        -6.98529e-01        0.00000e+00        0.00000e+00        0.00000e+00        5.44335e-03 
 98.00        3.67787e+00        -7.03082e-01        0.00000e+00        0.00000e+00        0.00000e+00        5.46181e-03 
 98.70        3.67248e+00        -7.07600e-01        0.00000e+00        0.00000e+00        0.00000e+00        5.47996e-03 
 99.40        3.66706e+00        -7.12082e-01        0.00000e+00        0.00000e+00        0.00000e+00        5.49780e-03 
 100.10        3.66161e+00        -7.16527e-01        0.00000e+00        0.00000e+00        0.00000e+00        5.51533e-03 
 100.80        3.65613e+00        -7.20936e-01        0.00000e+00        0.00000e+00        0.00000e+00        5.53255e-03 
 101.50        3.65062e+00        -7.25307e-01        0.00000e+00        0.00000e+00        0.00000e+00        5.54946e-03 
 102.20        3.64507e+00        -7.29641e-01        0.00000e+00        0.00000e+00        0.00000e+00        5.56606e-03 
 102.90        3.63950e+00        -7.33938e-01        0.00000e+00        0.00000e+00        0.00000e+00        5.58236e-03 
 103.60        3.63389e+00        -7.38198e-01        0.00000e+00        0.00000e+00        0.00000e+00        5.59835e-03 
 104.30        3.62826e+00        -7.42419e-01        0.00000e+00        0.00000e+00        0.00000e+00        5.61404e-03 
 105.00        3.62259e+00        -7.46603e-01        0.00000e+00        0.00000e+00        0.00000e+00        5.62942e-03 
 105.70        3.61690e+00        -7.50748e-01        0.00000e+00        0.00000e+00        0.00000e+00        5.64450e-03 
 106.40        3.61118e+00        -7.54855e-01        0.00000e+00        0.00000e+00        0.00000e+00        5.65929e-03 
 107.10        3.60542e+00        -7.58924e-01        0.00000e+00        0.00000e+00        0.00000e+00        5.67377e-03 
 107.80        3.59964e+00        -7.62954e-01        0.00000e+00        0.00000e+00        0.00000e+00        5.68795e-03 
 108.50        3.59384e+00        -7.66945e-01        0.00000e+00        0.00000e+00        0.00000e+00        5.70184e-03 
 109.20        3.58800e+00        -7.70897e-01        0.00000e+00        0.00000e+00        0.00000e+00        5.71543e-03 
 109.90        3.58214e+00        -7.74811e-01        0.00000e+00        0.00000e+00        0.00000e+00        5.72873e-03 
 110.60        3.57625e+00        -7.78685e-01        0.00000e+00        0.00000e+00        0.00000e+00        5.74174e-03 
 111.30        3.57034e+00        -7.82520e-01        0.00000e+00        0.00000e+00        0.00000e+00        5.75445e-03 
 112.00        3.56440e+00        -7.86316e-01        0.00000e+00        0.00000e+00        0.00000e+00        5.76688e-03 
