#Navio B MarAd
#Manobra de Curva Giro
#
#Velocidade Inercial
#
#temp           u           v           r
 0.00        4.11000e+00        0.00000e+00        0.00000e+00 
 0.70        4.11000e+00        8.37758e-05        0.00000e+00 
 1.40        4.11000e+00        1.63963e-04        0.00000e+00 
 2.10        4.10816e+00        -2.68260e-03        0.00000e+00 
 2.80        4.10632e+00        -5.40690e-03        0.00000e+00 
 3.50        4.10448e+00        -8.00949e-03        0.00000e+00 
 4.20        4.10265e+00        -1.04909e-02        0.00000e+00 
 4.90        4.10082e+00        -1.28517e-02        0.00000e+00 
 5.60        4.09899e+00        -1.50923e-02        0.00000e+00 
 6.30        4.09716e+00        -1.72133e-02        0.00000e+00 
 7.00        4.09534e+00        -1.92151e-02        0.00000e+00 
 7.70        4.09352e+00        -2.10982e-02        0.00000e+00 
 8.40        4.09170e+00        -2.28630e-02        0.00000e+00 
 9.10        4.08988e+00        -2.45101e-02        0.00000e+00 
 9.80        4.08806e+00        -2.60399e-02        0.00000e+00 
 10.50        4.08624e+00        -2.74527e-02        0.00000e+00 
 11.20        4.08442e+00        -2.87490e-02        0.00000e+00 
 11.90        4.08261e+00        -2.99292e-02        0.00000e+00 
 12.60        4.08079e+00        -3.09937e-02        0.00000e+00 
 13.30        4.07898e+00        -3.19429e-02        0.00000e+00 
 14.00        4.07716e+00        -3.27772e-02        0.00000e+00 
 14.70        4.07534e+00        -3.34970e-02        0.00000e+00 
 15.40        4.07353e+00        -3.41026e-02        0.00000e+00 
 16.10        4.07171e+00        -3.45944e-02        0.00000e+00 
 16.80        4.06989e+00        -3.49727e-02        0.00000e+00 
 17.50        4.06807e+00        -3.52380e-02        0.00000e+00 
 18.20        4.06624e+00        -3.53905e-02        0.00000e+00 
 18.90        4.06442e+00        -3.54307e-02        0.00000e+00 
 19.60        4.06259e+00        -3.53588e-02        0.00000e+00 
 20.30        4.06076e+00        -3.51752e-02        0.00000e+00 
 21.00        4.05892e+00        -3.48803e-02        0.00000e+00 
 21.70        4.05708e+00        -3.44744e-02        0.00000e+00 
 22.40        4.05524e+00        -3.39577e-02        0.00000e+00 
 23.10        4.05339e+00        -3.33308e-02        0.00000e+00 
 23.80        4.05154e+00        -3.25938e-02        0.00000e+00 
 24.50        4.04968e+00        -3.17471e-02        0.00000e+00 
 25.20        4.04781e+00        -3.07911e-02        0.00000e+00 
 25.90        4.04594e+00        -2.97261e-02        0.00000e+00 
 26.60        4.04406e+00        -2.85524e-02        0.00000e+00 
 27.30        4.04217e+00        -2.72704e-02        0.00000e+00 
 28.00        4.04027e+00        -2.58804e-02        0.00000e+00 
 28.70        4.03837e+00        -2.43827e-02        0.00000e+00 
 29.40        4.03646e+00        -2.27777e-02        0.00000e+00 
 30.10        4.03453e+00        -2.10658e-02        0.00000e+00 
 30.80        4.03260e+00        -1.92472e-02        0.00000e+00 
 31.50        4.03066e+00        -1.73224e-02        0.00000e+00 
 32.20        4.02870e+00        -1.52917e-02        0.00000e+00 
 32.90        4.02674e+00        -1.31554e-02        0.00000e+00 
 33.60        4.02476e+00        -1.09140e-02        0.00000e+00 
 34.30        4.02277e+00        -8.56775e-03        0.00000e+00 
 35.00        4.02076e+00        -6.11709e-03        0.00000e+00 
 35.70        4.01875e+00        -3.56239e-03        0.00000e+00 
 36.40        4.01671e+00        -9.04039e-04        0.00000e+00 
 37.10        4.01467e+00        1.85757e-03        0.00000e+00 
 37.80        4.01260e+00        4.72203e-03        0.00000e+00 
 38.50        4.01052e+00        7.68893e-03        0.00000e+00 
 39.20        4.00843e+00        1.07579e-02        0.00000e+00 
 39.90        4.00632e+00        1.39284e-02        0.00000e+00 
 40.60        4.00419e+00        1.72001e-02        0.00000e+00 
 41.30        4.00204e+00        2.05726e-02        0.00000e+00 
 42.00        3.99987e+00        2.40453e-02        0.00000e+00 
 42.70        3.99768e+00        2.76179e-02        0.00000e+00 
 43.40        3.99548e+00        3.12899e-02        0.00000e+00 
 44.10        3.99325e+00        3.50607e-02        0.00000e+00 
 44.80        3.99100e+00        3.89300e-02        0.00000e+00 
 45.50        3.98873e+00        4.28972e-02        0.00000e+00 
 46.20        3.98643e+00        4.69619e-02        0.00000e+00 
 46.90        3.98412e+00        5.11235e-02        0.00000e+00 
 47.60        3.98178e+00        5.53814e-02        0.00000e+00 
 48.30        3.97941e+00        5.97353e-02        0.00000e+00 
 49.00        3.97702e+00        6.41845e-02        0.00000e+00 
 49.70        3.97460e+00        6.87285e-02        0.00000e+00 
 50.40        3.97216e+00        7.33667e-02        0.00000e+00 
 51.10        3.96969e+00        7.80987e-02        0.00000e+00 
 51.80        3.96720e+00        8.29237e-02        0.00000e+00 
 52.50        3.96467e+00        8.78412e-02        0.00000e+00 
 53.20        3.96212e+00        9.28506e-02        0.00000e+00 
 53.90        3.95954e+00        9.79513e-02        0.00000e+00 
 54.60        3.95693e+00        1.03143e-01        0.00000e+00 
 55.30        3.95429e+00        1.08424e-01        0.00000e+00 
 56.00        3.95162e+00        1.13795e-01        0.00000e+00 
 56.70        3.94891e+00        1.19255e-01        0.00000e+00 
 57.40        3.94617e+00        1.24802e-01        0.00000e+00 
 58.10        3.94341e+00        1.30438e-01        0.00000e+00 
 58.80        3.94060e+00        1.36159e-01        0.00000e+00 
 59.50        3.93777e+00        1.41967e-01        0.00000e+00 
 60.20        3.93490e+00        1.47861e-01        0.00000e+00 
 60.90        3.93199e+00        1.53839e-01        0.00000e+00 
 61.60        3.92905e+00        1.59901e-01        0.00000e+00 
 62.30        3.92607e+00        1.66046e-01        0.00000e+00 
 63.00        3.92306e+00        1.72273e-01        0.00000e+00 
 63.70        3.92000e+00        1.78582e-01        0.00000e+00 
 64.40        3.91691e+00        1.84972e-01        0.00000e+00 
 65.10        3.91378e+00        1.91442e-01        0.00000e+00 
 65.80        3.91062e+00        1.97992e-01        0.00000e+00 
 66.50        3.90741e+00        2.04620e-01        0.00000e+00 
 67.20        3.90416e+00        2.11325e-01        0.00000e+00 
 67.90        3.90088e+00        2.18108e-01        0.00000e+00 
 68.60        3.89755e+00        2.24967e-01        0.00000e+00 
 69.30        3.89418e+00        2.31901e-01        0.00000e+00 
 70.00        3.89076e+00        2.38909e-01        0.00000e+00 
 70.70        3.88731e+00        2.45991e-01        0.00000e+00 
 71.40        3.88381e+00        2.53146e-01        0.00000e+00 
 72.10        3.88027e+00        2.60372e-01        0.00000e+00 
 72.80        3.87668e+00        2.67669e-01        0.00000e+00 
 73.50        3.87305e+00        2.75037e-01        0.00000e+00 
 74.20        3.86938e+00        2.82473e-01        0.00000e+00 
 74.90        3.86565e+00        2.89978e-01        0.00000e+00 
 75.60        3.86189e+00        2.97550e-01        0.00000e+00 
 76.30        3.85807e+00        3.05188e-01        0.00000e+00 
 77.00        3.85421e+00        3.12892e-01        0.00000e+00 
 77.70        3.85030e+00        3.20660e-01        0.00000e+00 
 78.40        3.84635e+00        3.28492e-01        0.00000e+00 
 79.10        3.84234e+00        3.36386e-01        0.00000e+00 
 79.80        3.83829e+00        3.44342e-01        0.00000e+00 
 80.50        3.83419e+00        3.52359e-01        0.00000e+00 
 81.20        3.83004e+00        3.60435e-01        0.00000e+00 
 81.90        3.82584e+00        3.68570e-01        0.00000e+00 
 82.60        3.82159e+00        3.76763e-01        0.00000e+00 
 83.30        3.81729e+00        3.85012e-01        0.00000e+00 
 84.00        3.81294e+00        3.93317e-01        0.00000e+00 
 84.70        3.80854e+00        4.01677e-01        0.00000e+00 
 85.40        3.80408e+00        4.10091e-01        0.00000e+00 
 86.10        3.79958e+00        4.18557e-01        0.00000e+00 
 86.80        3.79502e+00        4.27074e-01        0.00000e+00 
 87.50        3.79041e+00        4.35643e-01        0.00000e+00 
 88.20        3.78575e+00        4.44261e-01        0.00000e+00 
 88.90        3.78103e+00        4.52927e-01        0.00000e+00 
 89.60        3.77626e+00        4.61641e-01        0.00000e+00 
 90.30        3.77144e+00        4.70402e-01        0.00000e+00 
 91.00        3.76657e+00        4.79208e-01        0.00000e+00 
 91.70        3.76164e+00        4.88058e-01        0.00000e+00 
 92.40        3.75666e+00        4.96951e-01        0.00000e+00 
 93.10        3.75162e+00        5.05887e-01        0.00000e+00 
 93.80        3.74653e+00        5.14864e-01        0.00000e+00 
 94.50        3.74138e+00        5.23881e-01        0.00000e+00 
 95.20        3.73618e+00        5.32938e-01        0.00000e+00 
 95.90        3.73092e+00        5.42032e-01        0.00000e+00 
 96.60        3.72561e+00        5.51163e-01        0.00000e+00 
 97.30        3.72025e+00        5.60330e-01        0.00000e+00 
 98.00        3.71483e+00        5.69532e-01        0.00000e+00 
 98.70        3.70935e+00        5.78768e-01        0.00000e+00 
 99.40        3.70382e+00        5.88036e-01        0.00000e+00 
 100.10        3.69823e+00        5.97336e-01        0.00000e+00 
 100.80        3.69258e+00        6.06666e-01        0.00000e+00 
 101.50        3.68688e+00        6.16026e-01        0.00000e+00 
 102.20        3.68113e+00        6.25415e-01        0.00000e+00 
 102.90        3.67531e+00        6.34831e-01        0.00000e+00 
 103.60        3.66945e+00        6.44273e-01        0.00000e+00 
 104.30        3.66352e+00        6.53740e-01        0.00000e+00 
 105.00        3.65754e+00        6.63232e-01        0.00000e+00 
 105.70        3.65151e+00        6.72746e-01        0.00000e+00 
 106.40        3.64541e+00        6.82283e-01        0.00000e+00 
 107.10        3.63927e+00        6.91841e-01        0.00000e+00 
 107.80        3.63306e+00        7.01419e-01        0.00000e+00 
 108.50        3.62680e+00        7.11015e-01        0.00000e+00 
 109.20        3.62048e+00        7.20630e-01        0.00000e+00 
 109.90        3.61411e+00        7.30261e-01        0.00000e+00 
 110.60        3.60768e+00        7.39908e-01        0.00000e+00 
 111.30        3.60120e+00        7.49570e-01        0.00000e+00 
 112.00        3.59466e+00        7.59246e-01        0.00000e+00 
 112.70        3.58806e+00        7.68934e-01        0.00000e+00 
 113.40        3.58141e+00        7.78634e-01        0.00000e+00 
 114.10        3.57471e+00        7.88345e-01        0.00000e+00 
 114.80        3.56795e+00        7.98066e-01        0.00000e+00 
 115.50        3.56113e+00        8.07795e-01        0.00000e+00 
 116.20        3.55426e+00        8.17532e-01        0.00000e+00 
 116.90        3.54733e+00        8.27276e-01        0.00000e+00 
 117.60        3.54035e+00        8.37025e-01        0.00000e+00 
 118.30        3.53332e+00        8.46779e-01        0.00000e+00 
 119.00        3.52623e+00        8.56537e-01        0.00000e+00 
 119.70        3.51909e+00        8.66297e-01        0.00000e+00 
 120.40        3.51189e+00        8.76060e-01        0.00000e+00 
 121.10        3.50464e+00        8.85823e-01        0.00000e+00 
 121.80        3.49733e+00        8.95586e-01        0.00000e+00 
 122.50        3.48998e+00        9.05348e-01        0.00000e+00 
 123.20        3.48256e+00        9.15108e-01        0.00000e+00 
 123.90        3.47510e+00        9.24866e-01        0.00000e+00 
 124.60        3.46759e+00        9.34619e-01        0.00000e+00 
 125.30        3.46002e+00        9.44368e-01        0.00000e+00 
 126.00        3.45240e+00        9.54111e-01        0.00000e+00 
 126.70        3.44473e+00        9.63848e-01        0.00000e+00 
 127.40        3.43700e+00        9.73577e-01        0.00000e+00 
 128.10        3.42923e+00        9.83298e-01        0.00000e+00 
 128.80        3.42141e+00        9.93010e-01        0.00000e+00 
 129.50        3.41353e+00        1.00271e+00        0.00000e+00 
 130.20        3.40561e+00        1.01240e+00        0.00000e+00 
 130.90        3.39763e+00        1.02208e+00        0.00000e+00 
 131.60        3.38961e+00        1.03175e+00        0.00000e+00 
 132.30        3.38153e+00        1.04140e+00        0.00000e+00 
 133.00        3.37341e+00        1.05104e+00        0.00000e+00 
 133.70        3.36524e+00        1.06067e+00        0.00000e+00 
 134.40        3.35702e+00        1.07027e+00        0.00000e+00 
 135.10        3.34875e+00        1.07986e+00        0.00000e+00 
 135.80        3.34044e+00        1.08944e+00        0.00000e+00 
 136.50        3.33208e+00        1.09900e+00        0.00000e+00 
 137.20        3.32367e+00        1.10853e+00        0.00000e+00 
 137.90        3.31522e+00        1.11805e+00        0.00000e+00 
 138.60        3.30672e+00        1.12755e+00        0.00000e+00 
 139.30        3.29817e+00        1.13702e+00        0.00000e+00 
 140.00        3.28958e+00        1.14648e+00        0.00000e+00 
 140.70        3.28095e+00        1.15591e+00        0.00000e+00 
 141.40        3.27227e+00        1.16532e+00        0.00000e+00 
 142.10        3.26355e+00        1.17470e+00        0.00000e+00 
 142.80        3.25478e+00        1.18406e+00        0.00000e+00 
 143.50        3.24598e+00        1.19339e+00        0.00000e+00 
 144.20        3.23712e+00        1.20270e+00        0.00000e+00 
 144.90        3.22823e+00        1.21198e+00        0.00000e+00 
 145.60        3.21930e+00        1.22124e+00        0.00000e+00 
 146.30        3.21032e+00        1.23046e+00        0.00000e+00 
 147.00        3.20130e+00        1.23966e+00        0.00000e+00 
 147.70        3.19225e+00        1.24883e+00        0.00000e+00 
 148.40        3.18315e+00        1.25796e+00        0.00000e+00 
 149.10        3.17402e+00        1.26707e+00        0.00000e+00 
 149.80        3.16484e+00        1.27615e+00        0.00000e+00 
 150.50        3.15563e+00        1.28519e+00        0.00000e+00 
 151.20        3.14638e+00        1.29421e+00        0.00000e+00 
 151.90        3.13709e+00        1.30319e+00        0.00000e+00 
 152.60        3.12776e+00        1.31213e+00        0.00000e+00 
 153.30        3.11840e+00        1.32104e+00        0.00000e+00 
 154.00        3.10900e+00        1.32992e+00        0.00000e+00 
 154.70        3.09957e+00        1.33877e+00        0.00000e+00 
 155.40        3.09010e+00        1.34757e+00        0.00000e+00 
 156.10        3.08059e+00        1.35635e+00        0.00000e+00 
 156.80        3.07106e+00        1.36508e+00        0.00000e+00 
 157.50        3.06149e+00        1.37378e+00        0.00000e+00 
 158.20        3.05188e+00        1.38244e+00        0.00000e+00 
 158.90        3.04224e+00        1.39107e+00        0.00000e+00 
 159.60        3.03257e+00        1.39965e+00        0.00000e+00 
 160.30        3.02287e+00        1.40820e+00        0.00000e+00 
 161.00        3.01314e+00        1.41671e+00        0.00000e+00 
 161.70        3.00338e+00        1.42518e+00        0.00000e+00 
 162.40        2.99358e+00        1.43360e+00        0.00000e+00 
 163.10        2.98376e+00        1.44199e+00        0.00000e+00 
 163.80        2.97391e+00        1.45034e+00        0.00000e+00 
 164.50        2.96403e+00        1.45864e+00        0.00000e+00 
 165.20        2.95412e+00        1.46691e+00        0.00000e+00 
 165.90        2.94418e+00        1.47513e+00        0.00000e+00 
 166.60        2.93422e+00        1.48331e+00        0.00000e+00 
 167.30        2.92423e+00        1.49145e+00        0.00000e+00 
 168.00        2.91421e+00        1.49954e+00        0.00000e+00 
 168.70        2.90417e+00        1.50760e+00        0.00000e+00 
 169.40        2.89410e+00        1.51560e+00        0.00000e+00 
 170.10        2.88400e+00        1.52357e+00        0.00000e+00 
 170.80        2.87389e+00        1.53149e+00        0.00000e+00 
 171.50        2.86375e+00        1.53936e+00        0.00000e+00 
 172.20        2.85358e+00        1.54719e+00        0.00000e+00 
 172.90        2.84339e+00        1.55498e+00        0.00000e+00 
 173.60        2.83318e+00        1.56272e+00        0.00000e+00 
 174.30        2.82295e+00        1.57041e+00        0.00000e+00 
 175.00        2.81270e+00        1.57806e+00        0.00000e+00 
 175.70        2.80242e+00        1.58566e+00        0.00000e+00 
 176.40        2.79213e+00        1.59322e+00        0.00000e+00 
 177.10        2.78182e+00        1.60073e+00        0.00000e+00 
 177.80        2.77148e+00        1.60819e+00        0.00000e+00 
 178.50        2.76113e+00        1.61561e+00        0.00000e+00 
 179.20        2.75076e+00        1.62298e+00        0.00000e+00 
 179.90        2.74037e+00        1.63030e+00        0.00000e+00 
 180.60        2.72996e+00        1.63758e+00        0.00000e+00 
 181.30        2.71954e+00        1.64480e+00        0.00000e+00 
 182.00        2.70910e+00        1.65198e+00        0.00000e+00 
 182.70        2.69864e+00        1.65911e+00        0.00000e+00 
 183.40        2.68817e+00        1.66619e+00        0.00000e+00 
 184.10        2.67768e+00        1.67323e+00        0.00000e+00 
 184.80        2.66718e+00        1.68021e+00        0.00000e+00 
 185.50        2.65667e+00        1.68715e+00        0.00000e+00 
 186.20        2.64614e+00        1.69404e+00        0.00000e+00 
 186.90        2.63559e+00        1.70087e+00        0.00000e+00 
 187.60        2.62504e+00        1.70766e+00        0.00000e+00 
 188.30        2.61447e+00        1.71441e+00        0.00000e+00 
 189.00        2.60389e+00        1.72110e+00        0.00000e+00 
 189.70        2.59330e+00        1.72774e+00        0.00000e+00 
 190.40        2.58269e+00        1.73433e+00        0.00000e+00 
 191.10        2.57208e+00        1.74088e+00        0.00000e+00 
 191.80        2.56146e+00        1.74737e+00        0.00000e+00 
 192.50        2.55082e+00        1.75381e+00        0.00000e+00 
 193.20        2.54018e+00        1.76021e+00        0.00000e+00 
 193.90        2.52953e+00        1.76655e+00        0.00000e+00 
 194.60        2.51887e+00        1.77285e+00        0.00000e+00 
 195.30        2.50820e+00        1.77909e+00        0.00000e+00 
 196.00        2.49752e+00        1.78529e+00        0.00000e+00 
 196.70        2.48684e+00        1.79143e+00        0.00000e+00 
 197.40        2.47615e+00        1.79753e+00        0.00000e+00 
 198.10        2.46545e+00        1.80357e+00        0.00000e+00 
 198.80        2.45475e+00        1.80957e+00        0.00000e+00 
 199.50        2.44404e+00        1.81551e+00        0.00000e+00 
 200.20        2.43333e+00        1.82141e+00        0.00000e+00 
 200.90        2.42261e+00        1.82725e+00        0.00000e+00 
 201.60        2.41189e+00        1.83305e+00        0.00000e+00 
 202.30        2.40116e+00        1.83879e+00        0.00000e+00 
 203.00        2.39043e+00        1.84449e+00        0.00000e+00 
 203.70        2.37970e+00        1.85013e+00        0.00000e+00 
 204.40        2.36896e+00        1.85573e+00        0.00000e+00 
 205.10        2.35823e+00        1.86127e+00        0.00000e+00 
 205.80        2.34749e+00        1.86677e+00        0.00000e+00 
 206.50        2.33674e+00        1.87221e+00        0.00000e+00 
 207.20        2.32600e+00        1.87761e+00        0.00000e+00 
 207.90        2.31526e+00        1.88296e+00        0.00000e+00 
 208.60        2.30451e+00        1.88825e+00        0.00000e+00 
 209.30        2.29377e+00        1.89350e+00        0.00000e+00 
 210.00        2.28302e+00        1.89870e+00        0.00000e+00 
 210.70        2.27228e+00        1.90384e+00        0.00000e+00 
 211.40        2.26153e+00        1.90894e+00        0.00000e+00 
