#Navio B MarAd
#Manobra de Curva Giro
#
#Velocidade Inercial
#
#temp           u           v           r
 0.00        4.11000e+00        0.00000e+00        0.00000e+00 
 0.70        4.11000e+00        8.38163e-05        0.00000e+00 
 1.40        4.11000e+00        1.64123e-04        0.00000e+00 
 2.10        4.10816e+00        -2.68366e-03        0.00000e+00 
 2.80        4.10632e+00        -5.41188e-03        0.00000e+00 
 3.50        4.10448e+00        -8.02099e-03        0.00000e+00 
 4.20        4.10265e+00        -1.05114e-02        0.00000e+00 
 4.90        4.10082e+00        -1.28837e-02        0.00000e+00 
 5.60        4.09899e+00        -1.51381e-02        0.00000e+00 
 6.30        4.09716e+00        -1.72750e-02        0.00000e+00 
 7.00        4.09534e+00        -1.92949e-02        0.00000e+00 
 7.70        4.09352e+00        -2.11981e-02        0.00000e+00 
 8.40        4.09170e+00        -2.29850e-02        0.00000e+00 
 9.10        4.08988e+00        -2.46559e-02        0.00000e+00 
 9.80        4.08806e+00        -2.62110e-02        0.00000e+00 
 10.50        4.08624e+00        -2.76508e-02        0.00000e+00 
 11.20        4.08442e+00        -2.89756e-02        0.00000e+00 
 11.90        4.08261e+00        -3.01855e-02        0.00000e+00 
 12.60        4.08079e+00        -3.12809e-02        0.00000e+00 
 13.30        4.07898e+00        -3.22621e-02        0.00000e+00 
 14.00        4.07716e+00        -3.31293e-02        0.00000e+00 
 14.70        4.07534e+00        -3.38827e-02        0.00000e+00 
 15.40        4.07353e+00        -3.45226e-02        0.00000e+00 
 16.10        4.07171e+00        -3.50493e-02        0.00000e+00 
 16.80        4.06989e+00        -3.54628e-02        0.00000e+00 
 17.50        4.06806e+00        -3.57636e-02        0.00000e+00 
 18.20        4.06624e+00        -3.59517e-02        0.00000e+00 
 18.90        4.06441e+00        -3.60275e-02        0.00000e+00 
 19.60        4.06258e+00        -3.59910e-02        0.00000e+00 
 20.30        4.06075e+00        -3.58425e-02        0.00000e+00 
 21.00        4.05891e+00        -3.55821e-02        0.00000e+00 
 21.70        4.05707e+00        -3.52102e-02        0.00000e+00 
 22.40        4.05522e+00        -3.47267e-02        0.00000e+00 
 23.10        4.05337e+00        -3.41320e-02        0.00000e+00 
 23.80        4.05152e+00        -3.34263e-02        0.00000e+00 
 24.50        4.04965e+00        -3.26096e-02        0.00000e+00 
 25.20        4.04778e+00        -3.16822e-02        0.00000e+00 
 25.90        4.04591e+00        -3.06442e-02        0.00000e+00 
 26.60        4.04402e+00        -2.94959e-02        0.00000e+00 
 27.30        4.04213e+00        -2.82374e-02        0.00000e+00 
 28.00        4.04023e+00        -2.68689e-02        0.00000e+00 
 28.70        4.03832e+00        -2.53906e-02        0.00000e+00 
 29.40        4.03639e+00        -2.38027e-02        0.00000e+00 
 30.10        4.03446e+00        -2.21053e-02        0.00000e+00 
 30.80        4.03252e+00        -2.02987e-02        0.00000e+00 
 31.50        4.03057e+00        -1.83830e-02        0.00000e+00 
 32.20        4.02860e+00        -1.63585e-02        0.00000e+00 
 32.90        4.02663e+00        -1.42254e-02        0.00000e+00 
 33.60        4.02464e+00        -1.19837e-02        0.00000e+00 
 34.30        4.02263e+00        -9.63393e-03        0.00000e+00 
 35.00        4.02061e+00        -7.17610e-03        0.00000e+00 
 35.70        4.01858e+00        -4.61051e-03        0.00000e+00 
 36.40        4.01653e+00        -1.93738e-03        0.00000e+00 
 37.10        4.01446e+00        8.43053e-04        0.00000e+00 
 37.80        4.01238e+00        3.73053e-03        0.00000e+00 
 38.50        4.01028e+00        6.72480e-03        0.00000e+00 
 39.20        4.00816e+00        9.82559e-03        0.00000e+00 
 39.90        4.00602e+00        1.30326e-02        0.00000e+00 
 40.60        4.00386e+00        1.63456e-02        0.00000e+00 
 41.30        4.00168e+00        1.97643e-02        0.00000e+00 
 42.00        3.99948e+00        2.32884e-02        0.00000e+00 
 42.70        3.99726e+00        2.69175e-02        0.00000e+00 
 43.40        3.99502e+00        3.06514e-02        0.00000e+00 
 44.10        3.99275e+00        3.44896e-02        0.00000e+00 
 44.80        3.99046e+00        3.84320e-02        0.00000e+00 
 45.50        3.98814e+00        4.24780e-02        0.00000e+00 
 46.20        3.98580e+00        4.66273e-02        0.00000e+00 
 46.90        3.98343e+00        5.08797e-02        0.00000e+00 
 47.60        3.98104e+00        5.52345e-02        0.00000e+00 
 48.30        3.97862e+00        5.96916e-02        0.00000e+00 
 49.00        3.97617e+00        6.42503e-02        0.00000e+00 
 49.70        3.97369e+00        6.89104e-02        0.00000e+00 
 50.40        3.97118e+00        7.36714e-02        0.00000e+00 
 51.10        3.96865e+00        7.85327e-02        0.00000e+00 
 51.80        3.96608e+00        8.34940e-02        0.00000e+00 
 52.50        3.96347e+00        8.85547e-02        0.00000e+00 
 53.20        3.96084e+00        9.37144e-02        0.00000e+00 
 53.90        3.95817e+00        9.89725e-02        0.00000e+00 
 54.60        3.95547e+00        1.04328e-01        0.00000e+00 
 55.30        3.95273e+00        1.09782e-01        0.00000e+00 
 56.00        3.94996e+00        1.15332e-01        0.00000e+00 
 56.70        3.94715e+00        1.20978e-01        0.00000e+00 
 57.40        3.94431e+00        1.26720e-01        0.00000e+00 
 58.10        3.94142e+00        1.32557e-01        0.00000e+00 
 58.80        3.93850e+00        1.38489e-01        0.00000e+00 
 59.50        3.93554e+00        1.44514e-01        0.00000e+00 
 60.20        3.93254e+00        1.50633e-01        0.00000e+00 
 60.90        3.92949e+00        1.56843e-01        0.00000e+00 
 61.60        3.92641e+00        1.63146e-01        0.00000e+00 
 62.30        3.92328e+00        1.69540e-01        0.00000e+00 
 63.00        3.92011e+00        1.76024e-01        0.00000e+00 
 63.70        3.91690e+00        1.82598e-01        0.00000e+00 
 64.40        3.91364e+00        1.89260e-01        0.00000e+00 
 65.10        3.91034e+00        1.96011e-01        0.00000e+00 
 65.80        3.90699e+00        2.02849e-01        0.00000e+00 
 66.50        3.90359e+00        2.09774e-01        0.00000e+00 
 67.20        3.90015e+00        2.16784e-01        0.00000e+00 
 67.90        3.89666e+00        2.23880e-01        0.00000e+00 
 68.60        3.89312e+00        2.31059e-01        0.00000e+00 
 69.30        3.88953e+00        2.38322e-01        0.00000e+00 
 70.00        3.88589e+00        2.45667e-01        0.00000e+00 
 70.70        3.88220e+00        2.53094e-01        0.00000e+00 
 71.40        3.87846e+00        2.60601e-01        0.00000e+00 
 72.10        3.87466e+00        2.68188e-01        0.00000e+00 
 72.80        3.87082e+00        2.75854e-01        0.00000e+00 
 73.50        3.86692e+00        2.83597e-01        0.00000e+00 
 74.20        3.86297e+00        2.91417e-01        0.00000e+00 
 74.90        3.85896e+00        2.99314e-01        0.00000e+00 
 75.60        3.85489e+00        3.07285e-01        0.00000e+00 
 76.30        3.85077e+00        3.15330e-01        0.00000e+00 
 77.00        3.84660e+00        3.23448e-01        0.00000e+00 
 77.70        3.84237e+00        3.31637e-01        0.00000e+00 
 78.40        3.83808e+00        3.39898e-01        0.00000e+00 
 79.10        3.83373e+00        3.48228e-01        0.00000e+00 
 79.80        3.82932e+00        3.56627e-01        0.00000e+00 
 80.50        3.82485e+00        3.65094e-01        0.00000e+00 
 81.20        3.82033e+00        3.73627e-01        0.00000e+00 
 81.90        3.81574e+00        3.82226e-01        0.00000e+00 
 82.60        3.81109e+00        3.90888e-01        0.00000e+00 
 83.30        3.80639e+00        3.99614e-01        0.00000e+00 
 84.00        3.80162e+00        4.08403e-01        0.00000e+00 
 84.70        3.79678e+00        4.17251e-01        0.00000e+00 
 85.40        3.79189e+00        4.26160e-01        0.00000e+00 
 86.10        3.78693e+00        4.35127e-01        0.00000e+00 
 86.80        3.78191e+00        4.44152e-01        0.00000e+00 
 87.50        3.77682e+00        4.53232e-01        0.00000e+00 
 88.20        3.77167e+00        4.62368e-01        0.00000e+00 
 88.90        3.76646e+00        4.71558e-01        0.00000e+00 
 89.60        3.76118e+00        4.80799e-01        0.00000e+00 
 90.30        3.75584e+00        4.90093e-01        0.00000e+00 
 91.00        3.75043e+00        4.99436e-01        0.00000e+00 
 91.70        3.74495e+00        5.08828e-01        0.00000e+00 
 92.40        3.73941e+00        5.18268e-01        0.00000e+00 
 93.10        3.73380e+00        5.27754e-01        0.00000e+00 
 93.80        3.72812e+00        5.37286e-01        0.00000e+00 
 94.50        3.72238e+00        5.46861e-01        0.00000e+00 
 95.20        3.71656e+00        5.56478e-01        0.00000e+00 
 95.90        3.71069e+00        5.66137e-01        0.00000e+00 
 96.60        3.70474e+00        5.75836e-01        0.00000e+00 
 97.30        3.69872e+00        5.85573e-01        0.00000e+00 
 98.00        3.69264e+00        5.95348e-01        0.00000e+00 
 98.70        3.68649e+00        6.05159e-01        0.00000e+00 
 99.40        3.68027e+00        6.15005e-01        0.00000e+00 
 100.10        3.67398e+00        6.24884e-01        0.00000e+00 
 100.80        3.66762e+00        6.34796e-01        0.00000e+00 
 101.50        3.66119e+00        6.44738e-01        0.00000e+00 
 102.20        3.65470e+00        6.54710e-01        0.00000e+00 
 102.90        3.64813e+00        6.64710e-01        0.00000e+00 
 103.60        3.64150e+00        6.74737e-01        0.00000e+00 
 104.30        3.63479e+00        6.84790e-01        0.00000e+00 
 105.00        3.62802e+00        6.94867e-01        0.00000e+00 
 105.70        3.62118e+00        7.04967e-01        0.00000e+00 
 106.40        3.61427e+00        7.15088e-01        0.00000e+00 
 107.10        3.60728e+00        7.25231e-01        0.00000e+00 
 107.80        3.60023e+00        7.35392e-01        0.00000e+00 
 108.50        3.59311e+00        7.45571e-01        0.00000e+00 
 109.20        3.58593e+00        7.55766e-01        0.00000e+00 
 109.90        3.57867e+00        7.65977e-01        0.00000e+00 
 110.60        3.57134e+00        7.76201e-01        0.00000e+00 
 111.30        3.56395e+00        7.86439e-01        0.00000e+00 
 112.00        3.55648e+00        7.96687e-01        0.00000e+00 
 112.70        3.54895e+00        8.06945e-01        0.00000e+00 
 113.40        3.54135e+00        8.17212e-01        0.00000e+00 
 114.10        3.53368e+00        8.27487e-01        0.00000e+00 
 114.80        3.52594e+00        8.37768e-01        0.00000e+00 
 115.50        3.51814e+00        8.48053e-01        0.00000e+00 
 116.20        3.51027e+00        8.58342e-01        0.00000e+00 
 116.90        3.50233e+00        8.68634e-01        0.00000e+00 
 117.60        3.49432e+00        8.78927e-01        0.00000e+00 
 118.30        3.48625e+00        8.89219e-01        0.00000e+00 
 119.00        3.47811e+00        8.99511e-01        0.00000e+00 
 119.70        3.46990e+00        9.09799e-01        0.00000e+00 
 120.40        3.46163e+00        9.20084e-01        0.00000e+00 
 121.10        3.45330e+00        9.30364e-01        0.00000e+00 
 121.80        3.44489e+00        9.40638e-01        0.00000e+00 
 122.50        3.43643e+00        9.50904e-01        0.00000e+00 
 123.20        3.42789e+00        9.61162e-01        0.00000e+00 
 123.90        3.41930e+00        9.71410e-01        0.00000e+00 
 124.60        3.41064e+00        9.81647e-01        0.00000e+00 
 125.30        3.40192e+00        9.91872e-01        0.00000e+00 
 126.00        3.39313e+00        1.00208e+00        0.00000e+00 
 126.70        3.38428e+00        1.01228e+00        0.00000e+00 
 127.40        3.37537e+00        1.02246e+00        0.00000e+00 
 128.10        3.36640e+00        1.03263e+00        0.00000e+00 
 128.80        3.35737e+00        1.04278e+00        0.00000e+00 
 129.50        3.34828e+00        1.05290e+00        0.00000e+00 
 130.20        3.33912e+00        1.06301e+00        0.00000e+00 
 130.90        3.32991e+00        1.07310e+00        0.00000e+00 
 131.60        3.32064e+00        1.08317e+00        0.00000e+00 
 132.30        3.31131e+00        1.09321e+00        0.00000e+00 
 133.00        3.30192e+00        1.10323e+00        0.00000e+00 
 133.70        3.29247e+00        1.11322e+00        0.00000e+00 
 134.40        3.28297e+00        1.12319e+00        0.00000e+00 
 135.10        3.27341e+00        1.13313e+00        0.00000e+00 
 135.80        3.26380e+00        1.14304e+00        0.00000e+00 
 136.50        3.25413e+00        1.15293e+00        0.00000e+00 
 137.20        3.24440e+00        1.16278e+00        0.00000e+00 
 137.90        3.23462e+00        1.17260e+00        0.00000e+00 
 138.60        3.22479e+00        1.18240e+00        0.00000e+00 
 139.30        3.21491e+00        1.19215e+00        0.00000e+00 
 140.00        3.20497e+00        1.20188e+00        0.00000e+00 
 140.70        3.19498e+00        1.21157e+00        0.00000e+00 
 141.40        3.18494e+00        1.22122e+00        0.00000e+00 
 142.10        3.17485e+00        1.23084e+00        0.00000e+00 
 142.80        3.16471e+00        1.24042e+00        0.00000e+00 
 143.50        3.15452e+00        1.24996e+00        0.00000e+00 
 144.20        3.14428e+00        1.25947e+00        0.00000e+00 
 144.90        3.13400e+00        1.26893e+00        0.00000e+00 
 145.60        3.12367e+00        1.27836e+00        0.00000e+00 
 146.30        3.11329e+00        1.28774e+00        0.00000e+00 
 147.00        3.10286e+00        1.29708e+00        0.00000e+00 
 147.70        3.09240e+00        1.30638e+00        0.00000e+00 
 148.40        3.08188e+00        1.31564e+00        0.00000e+00 
 149.10        3.07133e+00        1.32485e+00        0.00000e+00 
 149.80        3.06073e+00        1.33401e+00        0.00000e+00 
 150.50        3.05008e+00        1.34314e+00        0.00000e+00 
 151.20        3.03940e+00        1.35221e+00        0.00000e+00 
 151.90        3.02868e+00        1.36124e+00        0.00000e+00 
 152.60        3.01791e+00        1.37022e+00        0.00000e+00 
 153.30        3.00711e+00        1.37915e+00        0.00000e+00 
 154.00        2.99627e+00        1.38804e+00        0.00000e+00 
 154.70        2.98539e+00        1.39687e+00        0.00000e+00 
 155.40        2.97447e+00        1.40566e+00        0.00000e+00 
 156.10        2.96351e+00        1.41439e+00        0.00000e+00 
 156.80        2.95253e+00        1.42308e+00        0.00000e+00 
 157.50        2.94150e+00        1.43171e+00        0.00000e+00 
 158.20        2.93044e+00        1.44029e+00        0.00000e+00 
 158.90        2.91935e+00        1.44882e+00        0.00000e+00 
 159.60        2.90822e+00        1.45729e+00        0.00000e+00 
 160.30        2.89707e+00        1.46571e+00        0.00000e+00 
 161.00        2.88588e+00        1.47408e+00        0.00000e+00 
 161.70        2.87466e+00        1.48240e+00        0.00000e+00 
 162.40        2.86341e+00        1.49065e+00        0.00000e+00 
 163.10        2.85213e+00        1.49886e+00        0.00000e+00 
 163.80        2.84083e+00        1.50701e+00        0.00000e+00 
 164.50        2.82949e+00        1.51510e+00        0.00000e+00 
 165.20        2.81813e+00        1.52313e+00        0.00000e+00 
 165.90        2.80674e+00        1.53111e+00        0.00000e+00 
 166.60        2.79533e+00        1.53903e+00        0.00000e+00 
 167.30        2.78389e+00        1.54689e+00        0.00000e+00 
 168.00        2.77243e+00        1.55470e+00        0.00000e+00 
 168.70        2.76095e+00        1.56245e+00        0.00000e+00 
 169.40        2.74944e+00        1.57014e+00        0.00000e+00 
 170.10        2.73791e+00        1.57777e+00        0.00000e+00 
 170.80        2.72636e+00        1.58534e+00        0.00000e+00 
 171.50        2.71479e+00        1.59285e+00        0.00000e+00 
 172.20        2.70320e+00        1.60030e+00        0.00000e+00 
 172.90        2.69159e+00        1.60770e+00        0.00000e+00 
 173.60        2.67996e+00        1.61503e+00        0.00000e+00 
 174.30        2.66831e+00        1.62230e+00        0.00000e+00 
 175.00        2.65665e+00        1.62951e+00        0.00000e+00 
 175.70        2.64497e+00        1.63666e+00        0.00000e+00 
 176.40        2.63327e+00        1.64376e+00        0.00000e+00 
 177.10        2.62156e+00        1.65078e+00        0.00000e+00 
 177.80        2.60984e+00        1.65775e+00        0.00000e+00 
 178.50        2.59810e+00        1.66466e+00        0.00000e+00 
 179.20        2.58635e+00        1.67151e+00        0.00000e+00 
 179.90        2.57459e+00        1.67829e+00        0.00000e+00 
 180.60        2.56282e+00        1.68501e+00        0.00000e+00 
 181.30        2.55103e+00        1.69167e+00        0.00000e+00 
 182.00        2.53924e+00        1.69827e+00        0.00000e+00 
 182.70        2.52743e+00        1.70481e+00        0.00000e+00 
 183.40        2.51562e+00        1.71129e+00        0.00000e+00 
 184.10        2.50380e+00        1.71770e+00        0.00000e+00 
 184.80        2.49197e+00        1.72405e+00        0.00000e+00 
 185.50        2.48014e+00        1.73034e+00        0.00000e+00 
 186.20        2.46829e+00        1.73657e+00        0.00000e+00 
 186.90        2.45645e+00        1.74273e+00        0.00000e+00 
 187.60        2.44459e+00        1.74883e+00        0.00000e+00 
 188.30        2.43274e+00        1.75487e+00        0.00000e+00 
 189.00        2.42088e+00        1.76085e+00        0.00000e+00 
 189.70        2.40901e+00        1.76677e+00        0.00000e+00 
 190.40        2.39715e+00        1.77262e+00        0.00000e+00 
 191.10        2.38528e+00        1.77841e+00        0.00000e+00 
 191.80        2.37341e+00        1.78414e+00        0.00000e+00 
 192.50        2.36154e+00        1.78981e+00        0.00000e+00 
 193.20        2.34967e+00        1.79541e+00        0.00000e+00 
 193.90        2.33780e+00        1.80096e+00        0.00000e+00 
 194.60        2.32593e+00        1.80644e+00        0.00000e+00 
 195.30        2.31406e+00        1.81186e+00        0.00000e+00 
 196.00        2.30219e+00        1.81721e+00        0.00000e+00 
 196.70        2.29033e+00        1.82251e+00        0.00000e+00 
 197.40        2.27847e+00        1.82775e+00        0.00000e+00 
 198.10        2.26661e+00        1.83292e+00        0.00000e+00 
 198.80        2.25476e+00        1.83803e+00        0.00000e+00 
 199.50        2.24291e+00        1.84308e+00        0.00000e+00 
 200.20        2.23107e+00        1.84807e+00        0.00000e+00 
 200.90        2.21923e+00        1.85300e+00        0.00000e+00 
 201.60        2.20740e+00        1.85787e+00        0.00000e+00 
 202.30        2.19558e+00        1.86268e+00        0.00000e+00 
 203.00        2.18376e+00        1.86743e+00        0.00000e+00 
 203.70        2.17195e+00        1.87211e+00        0.00000e+00 
 204.40        2.16015e+00        1.87674e+00        0.00000e+00 
 205.10        2.14836e+00        1.88131e+00        0.00000e+00 
 205.80        2.13658e+00        1.88581e+00        0.00000e+00 
 206.50        2.12481e+00        1.89026e+00        0.00000e+00 
 207.20        2.11304e+00        1.89465e+00        0.00000e+00 
 207.90        2.10129e+00        1.89898e+00        0.00000e+00 
 208.60        2.08955e+00        1.90325e+00        0.00000e+00 
 209.30        2.07782e+00        1.90746e+00        0.00000e+00 
 210.00        2.06610e+00        1.91161e+00        0.00000e+00 
 210.70        2.05440e+00        1.91571e+00        0.00000e+00 
 211.40        2.04271e+00        1.91975e+00        0.00000e+00 
