#Navio B MarAd
#Manobra de Curva Giro
#
#Velocidade Sistema Solidário 
#
#temp           u           v           w    dot roll   dot pitch     dot yaw 
 0.00        4.11000e+00        0.00000e+00        0.00000e+00        0.00000e+00        0.00000e+00        0.00000e+00 
 0.70        4.11000e+00        8.84005e-05        0.00000e+00        0.00000e+00        0.00000e+00        -2.42035e-06 
 1.40        4.11000e+00        1.79239e-04        0.00000e+00        0.00000e+00        0.00000e+00        -4.81995e-06 
 2.10        4.10816e+00        -2.74490e-03        0.00000e+00        0.00000e+00        0.00000e+00        5.73003e-05 
 2.80        4.10632e+00        -5.72809e-03        0.00000e+00        0.00000e+00        0.00000e+00        1.18915e-04 
 3.50        4.10448e+00        -8.76927e-03        0.00000e+00        0.00000e+00        0.00000e+00        1.80031e-04 
 4.20        4.10265e+00        -1.18674e-02        0.00000e+00        0.00000e+00        0.00000e+00        2.40656e-04 
 4.90        4.10081e+00        -1.50213e-02        0.00000e+00        0.00000e+00        0.00000e+00        3.00798e-04 
 5.60        4.09898e+00        -1.82300e-02        0.00000e+00        0.00000e+00        0.00000e+00        3.60463e-04 
 6.30        4.09714e+00        -2.14924e-02        0.00000e+00        0.00000e+00        0.00000e+00        4.19660e-04 
 7.00        4.09531e+00        -2.48076e-02        0.00000e+00        0.00000e+00        0.00000e+00        4.78393e-04 
 7.70        4.09348e+00        -2.81745e-02        0.00000e+00        0.00000e+00        0.00000e+00        5.36670e-04 
 8.40        4.09164e+00        -3.15920e-02        0.00000e+00        0.00000e+00        0.00000e+00        5.94497e-04 
 9.10        4.08980e+00        -3.50591e-02        0.00000e+00        0.00000e+00        0.00000e+00        6.51880e-04 
 9.80        4.08796e+00        -3.85749e-02        0.00000e+00        0.00000e+00        0.00000e+00        7.08824e-04 
 10.50        4.08612e+00        -4.21384e-02        0.00000e+00        0.00000e+00        0.00000e+00        7.65335e-04 
 11.20        4.08427e+00        -4.57485e-02        0.00000e+00        0.00000e+00        0.00000e+00        8.21419e-04 
 11.90        4.08242e+00        -4.94044e-02        0.00000e+00        0.00000e+00        0.00000e+00        8.77080e-04 
 12.60        4.08057e+00        -5.31049e-02        0.00000e+00        0.00000e+00        0.00000e+00        9.32324e-04 
 13.30        4.07871e+00        -5.68492e-02        0.00000e+00        0.00000e+00        0.00000e+00        9.87156e-04 
 14.00        4.07685e+00        -6.06363e-02        0.00000e+00        0.00000e+00        0.00000e+00        1.04158e-03 
 14.70        4.07498e+00        -6.44653e-02        0.00000e+00        0.00000e+00        0.00000e+00        1.09560e-03 
 15.40        4.07311e+00        -6.83351e-02        0.00000e+00        0.00000e+00        0.00000e+00        1.14922e-03 
 16.10        4.07123e+00        -7.22450e-02        0.00000e+00        0.00000e+00        0.00000e+00        1.20244e-03 
 16.80        4.06934e+00        -7.61938e-02        0.00000e+00        0.00000e+00        0.00000e+00        1.25528e-03 
 17.50        4.06745e+00        -8.01808e-02        0.00000e+00        0.00000e+00        0.00000e+00        1.30773e-03 
 18.20        4.06554e+00        -8.42050e-02        0.00000e+00        0.00000e+00        0.00000e+00        1.35979e-03 
 18.90        4.06363e+00        -8.82655e-02        0.00000e+00        0.00000e+00        0.00000e+00        1.41147e-03 
 19.60        4.06172e+00        -9.23613e-02        0.00000e+00        0.00000e+00        0.00000e+00        1.46278e-03 
 20.30        4.05979e+00        -9.64916e-02        0.00000e+00        0.00000e+00        0.00000e+00        1.51371e-03 
 21.00        4.05785e+00        -1.00655e-01        0.00000e+00        0.00000e+00        0.00000e+00        1.56427e-03 
 21.70        4.05590e+00        -1.04852e-01        0.00000e+00        0.00000e+00        0.00000e+00        1.61446e-03 
 22.40        4.05395e+00        -1.09080e-01        0.00000e+00        0.00000e+00        0.00000e+00        1.66429e-03 
 23.10        4.05198e+00        -1.13340e-01        0.00000e+00        0.00000e+00        0.00000e+00        1.71376e-03 
 23.80        4.05000e+00        -1.17629e-01        0.00000e+00        0.00000e+00        0.00000e+00        1.76287e-03 
 24.50        4.04801e+00        -1.21948e-01        0.00000e+00        0.00000e+00        0.00000e+00        1.81162e-03 
 25.20        4.04600e+00        -1.26295e-01        0.00000e+00        0.00000e+00        0.00000e+00        1.86001e-03 
 25.90        4.04399e+00        -1.30669e-01        0.00000e+00        0.00000e+00        0.00000e+00        1.90806e-03 
 26.60        4.04196e+00        -1.35070e-01        0.00000e+00        0.00000e+00        0.00000e+00        1.95575e-03 
 27.30        4.03992e+00        -1.39497e-01        0.00000e+00        0.00000e+00        0.00000e+00        2.00309e-03 
 28.00        4.03786e+00        -1.43948e-01        0.00000e+00        0.00000e+00        0.00000e+00        2.05009e-03 
 28.70        4.03579e+00        -1.48424e-01        0.00000e+00        0.00000e+00        0.00000e+00        2.09675e-03 
 29.40        4.03370e+00        -1.52923e-01        0.00000e+00        0.00000e+00        0.00000e+00        2.14306e-03 
 30.10        4.03160e+00        -1.57445e-01        0.00000e+00        0.00000e+00        0.00000e+00        2.18903e-03 
 30.80        4.02948e+00        -1.61988e-01        0.00000e+00        0.00000e+00        0.00000e+00        2.23465e-03 
 31.50        4.02735e+00        -1.66552e-01        0.00000e+00        0.00000e+00        0.00000e+00        2.27995e-03 
 32.20        4.02520e+00        -1.71136e-01        0.00000e+00        0.00000e+00        0.00000e+00        2.32490e-03 
 32.90        4.02303e+00        -1.75739e-01        0.00000e+00        0.00000e+00        0.00000e+00        2.36952e-03 
 33.60        4.02085e+00        -1.80360e-01        0.00000e+00        0.00000e+00        0.00000e+00        2.41380e-03 
 34.30        4.01865e+00        -1.84999e-01        0.00000e+00        0.00000e+00        0.00000e+00        2.45776e-03 
 35.00        4.01643e+00        -1.89655e-01        0.00000e+00        0.00000e+00        0.00000e+00        2.50138e-03 
 35.70        4.01419e+00        -1.94327e-01        0.00000e+00        0.00000e+00        0.00000e+00        2.54467e-03 
 36.40        4.01193e+00        -1.99014e-01        0.00000e+00        0.00000e+00        0.00000e+00        2.58762e-03 
 37.10        4.00965e+00        -2.03716e-01        0.00000e+00        0.00000e+00        0.00000e+00        2.63025e-03 
 37.80        4.00736e+00        -2.08431e-01        0.00000e+00        0.00000e+00        0.00000e+00        2.67256e-03 
 38.50        4.00504e+00        -2.13160e-01        0.00000e+00        0.00000e+00        0.00000e+00        2.71453e-03 
 39.20        4.00270e+00        -2.17900e-01        0.00000e+00        0.00000e+00        0.00000e+00        2.75618e-03 
 39.90        4.00035e+00        -2.22652e-01        0.00000e+00        0.00000e+00        0.00000e+00        2.79750e-03 
 40.60        3.99797e+00        -2.27414e-01        0.00000e+00        0.00000e+00        0.00000e+00        2.83850e-03 
 41.30        3.99557e+00        -2.32187e-01        0.00000e+00        0.00000e+00        0.00000e+00        2.87917e-03 
 42.00        3.99315e+00        -2.36969e-01        0.00000e+00        0.00000e+00        0.00000e+00        2.91952e-03 
 42.70        3.99070e+00        -2.41759e-01        0.00000e+00        0.00000e+00        0.00000e+00        2.95954e-03 
 43.40        3.98824e+00        -2.46557e-01        0.00000e+00        0.00000e+00        0.00000e+00        2.99925e-03 
 44.10        3.98575e+00        -2.51362e-01        0.00000e+00        0.00000e+00        0.00000e+00        3.03863e-03 
 44.80        3.98324e+00        -2.56173e-01        0.00000e+00        0.00000e+00        0.00000e+00        3.07768e-03 
 45.50        3.98070e+00        -2.60990e-01        0.00000e+00        0.00000e+00        0.00000e+00        3.11642e-03 
 46.20        3.97814e+00        -2.65812e-01        0.00000e+00        0.00000e+00        0.00000e+00        3.15483e-03 
 46.90        3.97556e+00        -2.70638e-01        0.00000e+00        0.00000e+00        0.00000e+00        3.19293e-03 
 47.60        3.97295e+00        -2.75467e-01        0.00000e+00        0.00000e+00        0.00000e+00        3.23070e-03 
 48.30        3.97032e+00        -2.80299e-01        0.00000e+00        0.00000e+00        0.00000e+00        3.26815e-03 
 49.00        3.96766e+00        -2.85134e-01        0.00000e+00        0.00000e+00        0.00000e+00        3.30528e-03 
 49.70        3.96498e+00        -2.89970e-01        0.00000e+00        0.00000e+00        0.00000e+00        3.34210e-03 
 50.40        3.96228e+00        -2.94807e-01        0.00000e+00        0.00000e+00        0.00000e+00        3.37859e-03 
 51.10        3.95954e+00        -2.99644e-01        0.00000e+00        0.00000e+00        0.00000e+00        3.41476e-03 
 51.80        3.95679e+00        -3.04480e-01        0.00000e+00        0.00000e+00        0.00000e+00        3.45061e-03 
 52.50        3.95400e+00        -3.09315e-01        0.00000e+00        0.00000e+00        0.00000e+00        3.48615e-03 
 53.20        3.95119e+00        -3.14149e-01        0.00000e+00        0.00000e+00        0.00000e+00        3.52137e-03 
 53.90        3.94836e+00        -3.18980e-01        0.00000e+00        0.00000e+00        0.00000e+00        3.55626e-03 
 54.60        3.94549e+00        -3.23808e-01        0.00000e+00        0.00000e+00        0.00000e+00        3.59084e-03 
 55.30        3.94260e+00        -3.28633e-01        0.00000e+00        0.00000e+00        0.00000e+00        3.62510e-03 
 56.00        3.93969e+00        -3.33453e-01        0.00000e+00        0.00000e+00        0.00000e+00        3.65905e-03 
 56.70        3.93674e+00        -3.38268e-01        0.00000e+00        0.00000e+00        0.00000e+00        3.69267e-03 
 57.40        3.93377e+00        -3.43078e-01        0.00000e+00        0.00000e+00        0.00000e+00        3.72598e-03 
 58.10        3.93077e+00        -3.47882e-01        0.00000e+00        0.00000e+00        0.00000e+00        3.75897e-03 
 58.80        3.92775e+00        -3.52679e-01        0.00000e+00        0.00000e+00        0.00000e+00        3.79164e-03 
 59.50        3.92470e+00        -3.57469e-01        0.00000e+00        0.00000e+00        0.00000e+00        3.82399e-03 
 60.20        3.92161e+00        -3.62250e-01        0.00000e+00        0.00000e+00        0.00000e+00        3.85603e-03 
 60.90        3.91850e+00        -3.67024e-01        0.00000e+00        0.00000e+00        0.00000e+00        3.88775e-03 
 61.60        3.91537e+00        -3.71789e-01        0.00000e+00        0.00000e+00        0.00000e+00        3.91916e-03 
 62.30        3.91220e+00        -3.76544e-01        0.00000e+00        0.00000e+00        0.00000e+00        3.95024e-03 
 63.00        3.90901e+00        -3.81289e-01        0.00000e+00        0.00000e+00        0.00000e+00        3.98101e-03 
 63.70        3.90578e+00        -3.86024e-01        0.00000e+00        0.00000e+00        0.00000e+00        4.01147e-03 
 64.40        3.90253e+00        -3.90747e-01        0.00000e+00        0.00000e+00        0.00000e+00        4.04161e-03 
 65.10        3.89925e+00        -3.95459e-01        0.00000e+00        0.00000e+00        0.00000e+00        4.07143e-03 
 65.80        3.89594e+00        -4.00158e-01        0.00000e+00        0.00000e+00        0.00000e+00        4.10094e-03 
 66.50        3.89261e+00        -4.04845e-01        0.00000e+00        0.00000e+00        0.00000e+00        4.13013e-03 
 67.20        3.88924e+00        -4.09519e-01        0.00000e+00        0.00000e+00        0.00000e+00        4.15901e-03 
 67.90        3.88584e+00        -4.14180e-01        0.00000e+00        0.00000e+00        0.00000e+00        4.18758e-03 
 68.60        3.88242e+00        -4.18826e-01        0.00000e+00        0.00000e+00        0.00000e+00        4.21583e-03 
 69.30        3.87897e+00        -4.23457e-01        0.00000e+00        0.00000e+00        0.00000e+00        4.24377e-03 
 70.00        3.87548e+00        -4.28073e-01        0.00000e+00        0.00000e+00        0.00000e+00        4.27139e-03 
 70.70        3.87197e+00        -4.32674e-01        0.00000e+00        0.00000e+00        0.00000e+00        4.29870e-03 
 71.40        3.86843e+00        -4.37259e-01        0.00000e+00        0.00000e+00        0.00000e+00        4.32570e-03 
 72.10        3.86486e+00        -4.41828e-01        0.00000e+00        0.00000e+00        0.00000e+00        4.35238e-03 
 72.80        3.86127e+00        -4.46379e-01        0.00000e+00        0.00000e+00        0.00000e+00        4.37876e-03 
 73.50        3.85764e+00        -4.50913e-01        0.00000e+00        0.00000e+00        0.00000e+00        4.40482e-03 
 74.20        3.85398e+00        -4.55430e-01        0.00000e+00        0.00000e+00        0.00000e+00        4.43057e-03 
 74.90        3.85030e+00        -4.59928e-01        0.00000e+00        0.00000e+00        0.00000e+00        4.45601e-03 
 75.60        3.84658e+00        -4.64408e-01        0.00000e+00        0.00000e+00        0.00000e+00        4.48115e-03 
 76.30        3.84284e+00        -4.68868e-01        0.00000e+00        0.00000e+00        0.00000e+00        4.50597e-03 
 77.00        3.83907e+00        -4.73310e-01        0.00000e+00        0.00000e+00        0.00000e+00        4.53049e-03 
 77.70        3.83527e+00        -4.77731e-01        0.00000e+00        0.00000e+00        0.00000e+00        4.55469e-03 
 78.40        3.83144e+00        -4.82133e-01        0.00000e+00        0.00000e+00        0.00000e+00        4.57859e-03 
 79.10        3.82758e+00        -4.86514e-01        0.00000e+00        0.00000e+00        0.00000e+00        4.60219e-03 
 79.80        3.82370e+00        -4.90874e-01        0.00000e+00        0.00000e+00        0.00000e+00        4.62547e-03 
 80.50        3.81978e+00        -4.95213e-01        0.00000e+00        0.00000e+00        0.00000e+00        4.64846e-03 
 81.20        3.81584e+00        -4.99530e-01        0.00000e+00        0.00000e+00        0.00000e+00        4.67113e-03 
 81.90        3.81187e+00        -5.03826e-01        0.00000e+00        0.00000e+00        0.00000e+00        4.69351e-03 
 82.60        3.80787e+00        -5.08099e-01        0.00000e+00        0.00000e+00        0.00000e+00        4.71558e-03 
 83.30        3.80385e+00        -5.12350e-01        0.00000e+00        0.00000e+00        0.00000e+00        4.73735e-03 
 84.00        3.79979e+00        -5.16578e-01        0.00000e+00        0.00000e+00        0.00000e+00        4.75882e-03 
 84.70        3.79571e+00        -5.20782e-01        0.00000e+00        0.00000e+00        0.00000e+00        4.77999e-03 
 85.40        3.79160e+00        -5.24963e-01        0.00000e+00        0.00000e+00        0.00000e+00        4.80086e-03 
 86.10        3.78746e+00        -5.29121e-01        0.00000e+00        0.00000e+00        0.00000e+00        4.82143e-03 
 86.80        3.78330e+00        -5.33254e-01        0.00000e+00        0.00000e+00        0.00000e+00        4.84170e-03 
 87.50        3.77910e+00        -5.37363e-01        0.00000e+00        0.00000e+00        0.00000e+00        4.86168e-03 
 88.20        3.77488e+00        -5.41448e-01        0.00000e+00        0.00000e+00        0.00000e+00        4.88136e-03 
 88.90        3.77064e+00        -5.45507e-01        0.00000e+00        0.00000e+00        0.00000e+00        4.90075e-03 
 89.60        3.76637e+00        -5.49542e-01        0.00000e+00        0.00000e+00        0.00000e+00        4.91984e-03 
 90.30        3.76207e+00        -5.53551e-01        0.00000e+00        0.00000e+00        0.00000e+00        4.93864e-03 
 91.00        3.75774e+00        -5.57534e-01        0.00000e+00        0.00000e+00        0.00000e+00        4.95715e-03 
 91.70        3.75339e+00        -5.61492e-01        0.00000e+00        0.00000e+00        0.00000e+00        4.97537e-03 
 92.40        3.74901e+00        -5.65424e-01        0.00000e+00        0.00000e+00        0.00000e+00        4.99330e-03 
 93.10        3.74461e+00        -5.69329e-01        0.00000e+00        0.00000e+00        0.00000e+00        5.01095e-03 
 93.80        3.74018e+00        -5.73208e-01        0.00000e+00        0.00000e+00        0.00000e+00        5.02830e-03 
 94.50        3.73573e+00        -5.77060e-01        0.00000e+00        0.00000e+00        0.00000e+00        5.04538e-03 
 95.20        3.73125e+00        -5.80885e-01        0.00000e+00        0.00000e+00        0.00000e+00        5.06216e-03 
 95.90        3.72675e+00        -5.84684e-01        0.00000e+00        0.00000e+00        0.00000e+00        5.07867e-03 
 96.60        3.72222e+00        -5.88455e-01        0.00000e+00        0.00000e+00        0.00000e+00        5.09489e-03 
 97.30        3.71767e+00        -5.92198e-01        0.00000e+00        0.00000e+00        0.00000e+00        5.11084e-03 
 98.00        3.71309e+00        -5.95914e-01        0.00000e+00        0.00000e+00        0.00000e+00        5.12650e-03 
 98.70        3.70849e+00        -5.99602e-01        0.00000e+00        0.00000e+00        0.00000e+00        5.14189e-03 
 99.40        3.70386e+00        -6.03263e-01        0.00000e+00        0.00000e+00        0.00000e+00        5.15701e-03 
 100.10        3.69922e+00        -6.06895e-01        0.00000e+00        0.00000e+00        0.00000e+00        5.17184e-03 
 100.80        3.69455e+00        -6.10499e-01        0.00000e+00        0.00000e+00        0.00000e+00        5.18641e-03 
 101.50        3.68985e+00        -6.14075e-01        0.00000e+00        0.00000e+00        0.00000e+00        5.20070e-03 
 102.20        3.68514e+00        -6.17623e-01        0.00000e+00        0.00000e+00        0.00000e+00        5.21473e-03 
 102.90        3.68040e+00        -6.21141e-01        0.00000e+00        0.00000e+00        0.00000e+00        5.22848e-03 
 103.60        3.67564e+00        -6.24632e-01        0.00000e+00        0.00000e+00        0.00000e+00        5.24197e-03 
 104.30        3.67085e+00        -6.28093e-01        0.00000e+00        0.00000e+00        0.00000e+00        5.25520e-03 
 105.00        3.66605e+00        -6.31526e-01        0.00000e+00        0.00000e+00        0.00000e+00        5.26816e-03 
 105.70        3.66122e+00        -6.34929e-01        0.00000e+00        0.00000e+00        0.00000e+00        5.28085e-03 
 106.40        3.65638e+00        -6.38304e-01        0.00000e+00        0.00000e+00        0.00000e+00        5.29329e-03 
 107.10        3.65151e+00        -6.41649e-01        0.00000e+00        0.00000e+00        0.00000e+00        5.30547e-03 
 107.80        3.64662e+00        -6.44965e-01        0.00000e+00        0.00000e+00        0.00000e+00        5.31739e-03 
 108.50        3.64171e+00        -6.48252e-01        0.00000e+00        0.00000e+00        0.00000e+00        5.32906e-03 
 109.20        3.63678e+00        -6.51510e-01        0.00000e+00        0.00000e+00        0.00000e+00        5.34047e-03 
 109.90        3.63184e+00        -6.54738e-01        0.00000e+00        0.00000e+00        0.00000e+00        5.35163e-03 
 110.60        3.62687e+00        -6.57937e-01        0.00000e+00        0.00000e+00        0.00000e+00        5.36254e-03 
 111.30        3.62188e+00        -6.61106e-01        0.00000e+00        0.00000e+00        0.00000e+00        5.37320e-03 
 112.00        3.61688e+00        -6.64246e-01        0.00000e+00        0.00000e+00        0.00000e+00        5.38361e-03 
