#Navio B MarAd
#Manobra de Curva Zig-Zag
#
#Velocidade Inercial
#
#temp           u           v           r
 0.00        4.11000e+00        0.00000e+00        0.00000e+00 
 0.70        4.11000e+00        8.38136e-05        0.00000e+00 
 1.40        4.11000e+00        1.64115e-04        0.00000e+00 
 2.10        4.10940e+00        -1.43050e-03        0.00000e+00 
 2.80        4.10880e+00        -2.95878e-03        0.00000e+00 
 3.50        4.10820e+00        -4.42103e-03        0.00000e+00 
 4.20        4.10760e+00        -5.81759e-03        0.00000e+00 
 4.90        4.10700e+00        -7.14875e-03        0.00000e+00 
 5.60        4.10640e+00        -8.41481e-03        0.00000e+00 
 6.30        4.10580e+00        -9.61606e-03        0.00000e+00 
 7.00        4.10521e+00        -1.07528e-02        0.00000e+00 
 7.70        4.10461e+00        -1.18252e-02        0.00000e+00 
 8.40        4.10401e+00        -1.28337e-02        0.00000e+00 
 9.10        4.10342e+00        -1.37784e-02        0.00000e+00 
 9.80        4.10282e+00        -1.46596e-02        0.00000e+00 
 10.50        4.10223e+00        -1.54776e-02        0.00000e+00 
 11.20        4.10163e+00        -1.62326e-02        0.00000e+00 
 11.90        4.10103e+00        -1.69248e-02        0.00000e+00 
 12.60        4.10044e+00        -1.75544e-02        0.00000e+00 
 13.30        4.09984e+00        -1.81216e-02        0.00000e+00 
 14.00        4.09925e+00        -1.86267e-02        0.00000e+00 
 14.70        4.09865e+00        -1.90699e-02        0.00000e+00 
 15.40        4.09805e+00        -1.94513e-02        0.00000e+00 
 16.10        4.09746e+00        -1.97711e-02        0.00000e+00 
 16.80        4.09686e+00        -2.00296e-02        0.00000e+00 
 17.50        4.09626e+00        -2.02268e-02        0.00000e+00 
 18.20        4.09566e+00        -2.03631e-02        0.00000e+00 
 18.90        4.09506e+00        -2.04384e-02        0.00000e+00 
 19.60        4.09446e+00        -2.04531e-02        0.00000e+00 
 20.30        4.09386e+00        -2.04072e-02        0.00000e+00 
 21.00        4.09325e+00        -2.03010e-02        0.00000e+00 
 21.70        4.09265e+00        -2.01345e-02        0.00000e+00 
 22.40        4.09204e+00        -1.99079e-02        0.00000e+00 
 23.10        4.09143e+00        -1.96213e-02        0.00000e+00 
 23.80        4.09082e+00        -1.92750e-02        0.00000e+00 
 24.50        4.09021e+00        -1.88689e-02        0.00000e+00 
 25.20        4.08959e+00        -1.84033e-02        0.00000e+00 
 25.90        4.08898e+00        -1.78783e-02        0.00000e+00 
 26.60        4.08836e+00        -1.72939e-02        0.00000e+00 
 27.30        4.08774e+00        -1.66504e-02        0.00000e+00 
 28.00        4.08711e+00        -1.59478e-02        0.00000e+00 
 28.70        4.08648e+00        -1.51862e-02        0.00000e+00 
 29.40        4.08585e+00        -1.43658e-02        0.00000e+00 
 30.10        4.08522e+00        -1.34866e-02        0.00000e+00 
 30.80        4.08458e+00        -1.25488e-02        0.00000e+00 
 31.50        4.08394e+00        -1.15525e-02        0.00000e+00 
 32.20        4.08330e+00        -1.04978e-02        0.00000e+00 
 32.90        4.08265e+00        -9.38466e-03        0.00000e+00 
 33.60        4.08200e+00        -8.21334e-03        0.00000e+00 
 34.30        4.08134e+00        -6.98387e-03        0.00000e+00 
 35.00        4.08068e+00        -5.69636e-03        0.00000e+00 
 35.70        4.08001e+00        -4.35089e-03        0.00000e+00 
 36.40        4.07934e+00        -2.94756e-03        0.00000e+00 
 37.10        4.07867e+00        -1.48646e-03        0.00000e+00 
 37.80        4.07798e+00        3.23248e-05        0.00000e+00 
 38.50        4.07730e+00        1.60871e-03        0.00000e+00 
 39.20        4.07661e+00        3.24260e-03        0.00000e+00 
 39.90        4.07591e+00        4.93391e-03        0.00000e+00 
 40.60        4.07520e+00        6.68257e-03        0.00000e+00 
 41.30        4.07449e+00        8.48847e-03        0.00000e+00 
 42.00        4.07377e+00        1.03515e-02        0.00000e+00 
 42.70        4.07305e+00        1.22717e-02        0.00000e+00 
 43.40        4.07232e+00        1.42489e-02        0.00000e+00 
 44.10        4.07158e+00        1.62829e-02        0.00000e+00 
 44.80        4.07084e+00        1.83738e-02        0.00000e+00 
 45.50        4.07008e+00        2.05215e-02        0.00000e+00 
 46.20        4.06932e+00        2.27258e-02        0.00000e+00 
 46.90        4.06855e+00        2.49866e-02        0.00000e+00 
 47.60        4.06778e+00        2.73040e-02        0.00000e+00 
 48.30        4.06699e+00        2.96777e-02        0.00000e+00 
 49.00        4.06620e+00        3.21078e-02        0.00000e+00 
 49.70        4.06539e+00        3.45941e-02        0.00000e+00 
 50.40        4.06458e+00        3.71365e-02        0.00000e+00 
 51.10        4.06376e+00        3.97350e-02        0.00000e+00 
 51.80        4.06293e+00        4.23894e-02        0.00000e+00 
 52.50        4.06209e+00        4.50997e-02        0.00000e+00 
 53.20        4.06123e+00        4.78657e-02        0.00000e+00 
 53.90        4.06037e+00        5.06874e-02        0.00000e+00 
 54.60        4.05950e+00        5.35647e-02        0.00000e+00 
 55.30        4.05862e+00        5.64975e-02        0.00000e+00 
 56.00        4.05772e+00        5.94856e-02        0.00000e+00 
 56.70        4.05681e+00        6.25290e-02        0.00000e+00 
 57.40        4.05590e+00        6.56275e-02        0.00000e+00 
 58.10        4.05497e+00        6.87811e-02        0.00000e+00 
 58.80        4.05402e+00        7.19897e-02        0.00000e+00 
 59.50        4.05307e+00        7.52531e-02        0.00000e+00 
 60.20        4.05210e+00        7.85712e-02        0.00000e+00 
 60.90        4.05112e+00        8.19439e-02        0.00000e+00 
 61.60        4.05013e+00        8.53711e-02        0.00000e+00 
 62.30        4.04912e+00        8.88527e-02        0.00000e+00 
 63.00        4.04810e+00        9.23885e-02        0.00000e+00 
 63.70        4.04706e+00        9.59785e-02        0.00000e+00 
 64.40        4.04601e+00        9.96224e-02        0.00000e+00 
 65.10        4.04495e+00        1.03320e-01        0.00000e+00 
 65.80        4.04387e+00        1.07072e-01        0.00000e+00 
 66.50        4.04277e+00        1.10877e-01        0.00000e+00 
 67.20        4.04166e+00        1.14735e-01        0.00000e+00 
 67.90        4.04054e+00        1.18647e-01        0.00000e+00 
 68.60        4.03940e+00        1.22612e-01        0.00000e+00 
 69.30        4.03824e+00        1.26631e-01        0.00000e+00 
 70.00        4.03707e+00        1.30701e-01        0.00000e+00 
 70.70        4.03588e+00        1.34825e-01        0.00000e+00 
 71.40        4.03467e+00        1.39001e-01        0.00000e+00 
 72.10        4.03344e+00        1.43230e-01        0.00000e+00 
 72.80        4.03220e+00        1.47511e-01        0.00000e+00 
 73.50        4.03094e+00        1.51844e-01        0.00000e+00 
 74.20        4.02966e+00        1.56228e-01        0.00000e+00 
 74.90        4.02836e+00        1.60665e-01        0.00000e+00 
 75.60        4.02705e+00        1.65153e-01        0.00000e+00 
 76.30        4.02571e+00        1.69692e-01        0.00000e+00 
 77.00        4.02436e+00        1.74283e-01        0.00000e+00 
 77.70        4.02298e+00        1.78924e-01        0.00000e+00 
 78.40        4.02159e+00        1.83617e-01        0.00000e+00 
 79.10        4.02018e+00        1.88360e-01        0.00000e+00 
 79.80        4.01874e+00        1.93153e-01        0.00000e+00 
 80.50        4.01729e+00        1.97996e-01        0.00000e+00 
 81.20        4.01581e+00        2.02890e-01        0.00000e+00 
 81.90        4.01431e+00        2.07833e-01        0.00000e+00 
 82.60        4.01280e+00        2.12826e-01        0.00000e+00 
 83.30        4.01126e+00        2.17868e-01        0.00000e+00 
 84.00        4.00969e+00        2.22959e-01        0.00000e+00 
 84.70        4.00811e+00        2.28099e-01        0.00000e+00 
 85.40        4.00650e+00        2.33288e-01        0.00000e+00 
 86.10        4.00487e+00        2.38525e-01        0.00000e+00 
 86.80        4.00322e+00        2.43810e-01        0.00000e+00 
 87.50        4.00154e+00        2.49143e-01        0.00000e+00 
 88.20        3.99984e+00        2.54524e-01        0.00000e+00 
 88.90        3.99811e+00        2.59952e-01        0.00000e+00 
 89.60        3.99636e+00        2.65428e-01        0.00000e+00 
 90.30        3.99459e+00        2.70950e-01        0.00000e+00 
 91.00        3.99279e+00        2.76519e-01        0.00000e+00 
 91.70        3.99097e+00        2.82134e-01        0.00000e+00 
 92.40        3.98912e+00        2.87796e-01        0.00000e+00 
 93.10        3.98725e+00        2.93503e-01        0.00000e+00 
 93.80        3.98535e+00        2.99256e-01        0.00000e+00 
 94.50        3.98342e+00        3.05054e-01        0.00000e+00 
 95.20        3.98147e+00        3.10897e-01        0.00000e+00 
 95.90        3.97949e+00        3.16785e-01        0.00000e+00 
 96.60        3.97748e+00        3.22717e-01        0.00000e+00 
 97.30        3.97545e+00        3.28693e-01        0.00000e+00 
 98.00        3.97339e+00        3.34713e-01        0.00000e+00 
 98.70        3.97130e+00        3.40777e-01        0.00000e+00 
 99.40        3.96918e+00        3.46883e-01        0.00000e+00 
 100.10        3.96704e+00        3.53033e-01        0.00000e+00 
 100.80        3.96486e+00        3.59225e-01        0.00000e+00 
 101.50        3.96266e+00        3.65459e-01        0.00000e+00 
 102.20        3.96043e+00        3.71735e-01        0.00000e+00 
 102.90        3.95817e+00        3.78053e-01        0.00000e+00 
 103.60        3.95588e+00        3.84412e-01        0.00000e+00 
 104.30        3.95356e+00        3.90812e-01        0.00000e+00 
 105.00        3.95121e+00        3.97252e-01        0.00000e+00 
 105.70        3.94883e+00        4.03732e-01        0.00000e+00 
 106.40        3.94642e+00        4.10253e-01        0.00000e+00 
 107.10        3.94398e+00        4.16812e-01        0.00000e+00 
 107.80        3.94151e+00        4.23411e-01        0.00000e+00 
 108.50        3.93901e+00        4.30049e-01        0.00000e+00 
 109.20        3.93648e+00        4.36725e-01        0.00000e+00 
 109.90        3.93391e+00        4.43439e-01        0.00000e+00 
 110.60        3.93132e+00        4.50191e-01        0.00000e+00 
 111.30        3.92869e+00        4.56980e-01        0.00000e+00 
 112.00        3.92603e+00        4.63806e-01        0.00000e+00 
 112.70        3.92333e+00        4.70668e-01        0.00000e+00 
 113.40        3.92061e+00        4.77567e-01        0.00000e+00 
 114.10        3.91785e+00        4.84501e-01        0.00000e+00 
 114.80        3.91506e+00        4.91471e-01        0.00000e+00 
 115.50        3.91224e+00        4.98476e-01        0.00000e+00 
 116.20        3.90938e+00        5.05515e-01        0.00000e+00 
 116.90        3.90649e+00        5.12588e-01        0.00000e+00 
 117.60        3.90356e+00        5.19696e-01        0.00000e+00 
 118.30        3.90060e+00        5.26836e-01        0.00000e+00 
 119.00        3.89761e+00        5.34010e-01        0.00000e+00 
 119.70        3.89458e+00        5.41216e-01        0.00000e+00 
 120.40        3.89152e+00        5.48454e-01        0.00000e+00 
 121.10        3.88843e+00        5.55724e-01        0.00000e+00 
 121.80        3.88529e+00        5.63025e-01        0.00000e+00 
 122.50        3.88213e+00        5.70357e-01        0.00000e+00 
 123.20        3.87893e+00        5.77720e-01        0.00000e+00 
 123.90        3.87569e+00        5.85112e-01        0.00000e+00 
 124.60        3.87242e+00        5.92534e-01        0.00000e+00 
 125.30        3.86911e+00        5.99986e-01        0.00000e+00 
 126.00        3.86577e+00        6.07466e-01        0.00000e+00 
 126.70        3.86239e+00        6.14974e-01        0.00000e+00 
 127.40        3.85898e+00        6.22510e-01        0.00000e+00 
 128.10        3.85553e+00        6.30073e-01        0.00000e+00 
 128.80        3.85204e+00        6.37664e-01        0.00000e+00 
 129.50        3.84851e+00        6.45281e-01        0.00000e+00 
 130.20        3.84495e+00        6.52924e-01        0.00000e+00 
 130.90        3.84136e+00        6.60592e-01        0.00000e+00 
 131.60        3.83772e+00        6.68286e-01        0.00000e+00 
 132.30        3.83405e+00        6.76005e-01        0.00000e+00 
 133.00        3.83035e+00        6.83748e-01        0.00000e+00 
 133.70        3.82660e+00        6.91514e-01        0.00000e+00 
 134.40        3.82282e+00        6.99304e-01        0.00000e+00 
 135.10        3.81900e+00        7.07117e-01        0.00000e+00 
 135.80        3.81514e+00        7.14952e-01        0.00000e+00 
 136.50        3.81125e+00        7.22809e-01        0.00000e+00 
 137.20        3.80732e+00        7.30688e-01        0.00000e+00 
 137.90        3.80335e+00        7.38588e-01        0.00000e+00 
 138.60        3.79934e+00        7.46508e-01        0.00000e+00 
 139.30        3.79530e+00        7.54448e-01        0.00000e+00 
 140.00        3.79121e+00        7.62408e-01        0.00000e+00 
 140.70        3.78709e+00        7.70388e-01        0.00000e+00 
 141.40        3.78293e+00        7.78385e-01        0.00000e+00 
 142.10        3.77874e+00        7.86402e-01        0.00000e+00 
 142.80        3.77345e+00        7.97318e-01        0.00000e+00 
 143.50        3.76819e+00        8.08108e-01        0.00000e+00 
 144.20        3.76296e+00        8.18772e-01        0.00000e+00 
 144.90        3.75775e+00        8.29312e-01        0.00000e+00 
 145.60        3.75258e+00        8.39731e-01        0.00000e+00 
 146.30        3.74743e+00        8.50031e-01        0.00000e+00 
 147.00        3.74232e+00        8.60213e-01        0.00000e+00 
 147.70        3.73723e+00        8.70279e-01        0.00000e+00 
 148.40        3.73217e+00        8.80232e-01        0.00000e+00 
 149.10        3.72714e+00        8.90073e-01        0.00000e+00 
 149.80        3.72214e+00        8.99804e-01        0.00000e+00 
 150.50        3.71717e+00        9.09426e-01        0.00000e+00 
 151.20        3.71223e+00        9.18942e-01        0.00000e+00 
 151.90        3.70732e+00        9.28353e-01        0.00000e+00 
 152.60        3.70244e+00        9.37660e-01        0.00000e+00 
 153.30        3.69759e+00        9.46865e-01        0.00000e+00 
 154.00        3.69277e+00        9.55970e-01        0.00000e+00 
 154.70        3.68798e+00        9.64976e-01        0.00000e+00 
 155.40        3.68322e+00        9.73885e-01        0.00000e+00 
 156.10        3.67849e+00        9.82698e-01        0.00000e+00 
 156.80        3.67379e+00        9.91417e-01        0.00000e+00 
 157.50        3.66912e+00        1.00004e+00        0.00000e+00 
 158.20        3.66448e+00        1.00858e+00        0.00000e+00 
 158.90        3.65987e+00        1.01702e+00        0.00000e+00 
 159.60        3.65529e+00        1.02538e+00        0.00000e+00 
 160.30        3.65074e+00        1.03364e+00        0.00000e+00 
 161.00        3.64622e+00        1.04182e+00        0.00000e+00 
 161.70        3.64174e+00        1.04992e+00        0.00000e+00 
 162.40        3.63728e+00        1.05793e+00        0.00000e+00 
 163.10        3.63285e+00        1.06586e+00        0.00000e+00 
 163.80        3.62844e+00        1.07371e+00        0.00000e+00 
 164.50        3.62407e+00        1.08147e+00        0.00000e+00 
 165.20        3.61973e+00        1.08916e+00        0.00000e+00 
 165.90        3.61542e+00        1.09677e+00        0.00000e+00 
 166.60        3.61114e+00        1.10430e+00        0.00000e+00 
 167.30        3.60689e+00        1.11176e+00        0.00000e+00 
 168.00        3.60266e+00        1.11914e+00        0.00000e+00 
 168.70        3.59847e+00        1.12644e+00        0.00000e+00 
 169.40        3.59430e+00        1.13368e+00        0.00000e+00 
 170.10        3.59017e+00        1.14084e+00        0.00000e+00 
 170.80        3.58606e+00        1.14793e+00        0.00000e+00 
 171.50        3.58198e+00        1.15495e+00        0.00000e+00 
 172.20        3.57793e+00        1.16189e+00        0.00000e+00 
 172.90        3.57391e+00        1.16878e+00        0.00000e+00 
 173.60        3.56992e+00        1.17559e+00        0.00000e+00 
 174.30        3.56595e+00        1.18234e+00        0.00000e+00 
 175.00        3.56202e+00        1.18902e+00        0.00000e+00 
 175.70        3.55811e+00        1.19563e+00        0.00000e+00 
 176.40        3.55423e+00        1.20218e+00        0.00000e+00 
 177.10        3.55037e+00        1.20867e+00        0.00000e+00 
 177.80        3.54655e+00        1.21509e+00        0.00000e+00 
 178.50        3.54275e+00        1.22145e+00        0.00000e+00 
 179.20        3.53898e+00        1.22776e+00        0.00000e+00 
 179.90        3.53524e+00        1.23400e+00        0.00000e+00 
 180.60        3.53153e+00        1.24018e+00        0.00000e+00 
 181.30        3.52784e+00        1.24630e+00        0.00000e+00 
 182.00        3.52418e+00        1.25236e+00        0.00000e+00 
 182.70        3.52055e+00        1.25836e+00        0.00000e+00 
 183.40        3.51694e+00        1.26431e+00        0.00000e+00 
 184.10        3.51336e+00        1.27020e+00        0.00000e+00 
 184.80        3.50981e+00        1.27604e+00        0.00000e+00 
 185.50        3.50628e+00        1.28181e+00        0.00000e+00 
 186.20        3.50278e+00        1.28754e+00        0.00000e+00 
 186.90        3.49931e+00        1.29321e+00        0.00000e+00 
 187.60        3.49586e+00        1.29883e+00        0.00000e+00 
 188.30        3.49244e+00        1.30439e+00        0.00000e+00 
 189.00        3.48905e+00        1.30990e+00        0.00000e+00 
 189.70        3.48568e+00        1.31536e+00        0.00000e+00 
 190.40        3.48233e+00        1.32077e+00        0.00000e+00 
 191.10        3.47902e+00        1.32613e+00        0.00000e+00 
 191.80        3.47572e+00        1.33143e+00        0.00000e+00 
 192.50        3.47246e+00        1.33669e+00        0.00000e+00 
 193.20        3.46922e+00        1.34190e+00        0.00000e+00 
 193.90        3.46600e+00        1.34706e+00        0.00000e+00 
 194.60        3.46281e+00        1.35217e+00        0.00000e+00 
 195.30        3.45964e+00        1.35723e+00        0.00000e+00 
 196.00        3.45650e+00        1.36225e+00        0.00000e+00 
 196.70        3.45338e+00        1.36722e+00        0.00000e+00 
 197.40        3.45029e+00        1.37214e+00        0.00000e+00 
 198.10        3.44722e+00        1.37702e+00        0.00000e+00 
 198.80        3.44418e+00        1.38185e+00        0.00000e+00 
 199.50        3.44116e+00        1.38663e+00        0.00000e+00 
 200.20        3.43817e+00        1.39137e+00        0.00000e+00 
 200.90        3.43520e+00        1.39607e+00        0.00000e+00 
 201.60        3.43225e+00        1.40072e+00        0.00000e+00 
 202.30        3.42933e+00        1.40533e+00        0.00000e+00 
 203.00        3.42643e+00        1.40990e+00        0.00000e+00 
 203.70        3.42355e+00        1.41442e+00        0.00000e+00 
 204.40        3.42070e+00        1.41890e+00        0.00000e+00 
 205.10        3.41787e+00        1.42334e+00        0.00000e+00 
 205.80        3.41507e+00        1.42773e+00        0.00000e+00 
 206.50        3.41229e+00        1.43209e+00        0.00000e+00 
 207.20        3.40953e+00        1.43640e+00        0.00000e+00 
 207.90        3.40680e+00        1.44068e+00        0.00000e+00 
 208.60        3.40408e+00        1.44491e+00        0.00000e+00 
 209.30        3.40140e+00        1.44910e+00        0.00000e+00 
 210.00        3.39873e+00        1.45325e+00        0.00000e+00 
 210.70        3.39609e+00        1.45737e+00        0.00000e+00 
 211.40        3.39347e+00        1.46144e+00        0.00000e+00 
