#Navio B MarAd
#Manobra de Curva Giro
#
#Velocidade Sistema Solidário 
#
#temp           u           v           w    dot roll   dot pitch     dot yaw 
 0.00        4.11000e+00        0.00000e+00        0.00000e+00        0.00000e+00        0.00000e+00        0.00000e+00 
 0.70        4.11000e+00        8.67120e-05        0.00000e+00        0.00000e+00        0.00000e+00        -1.86402e-06 
 1.40        4.11000e+00        1.75678e-04        0.00000e+00        0.00000e+00        0.00000e+00        -3.71385e-06 
 2.10        4.10816e+00        -2.75789e-03        0.00000e+00        0.00000e+00        0.00000e+00        5.89505e-05 
 2.80        4.10632e+00        -5.76534e-03        0.00000e+00        0.00000e+00        0.00000e+00        1.21105e-04 
 3.50        4.10448e+00        -8.84537e-03        0.00000e+00        0.00000e+00        0.00000e+00        1.82760e-04 
 4.20        4.10265e+00        -1.19967e-02        0.00000e+00        0.00000e+00        0.00000e+00        2.43924e-04 
 4.90        4.10081e+00        -1.52181e-02        0.00000e+00        0.00000e+00        0.00000e+00        3.04607e-04 
 5.60        4.09898e+00        -1.85084e-02        0.00000e+00        0.00000e+00        0.00000e+00        3.64818e-04 
 6.30        4.09714e+00        -2.18662e-02        0.00000e+00        0.00000e+00        0.00000e+00        4.24565e-04 
 7.00        4.09531e+00        -2.52904e-02        0.00000e+00        0.00000e+00        0.00000e+00        4.83856e-04 
 7.70        4.09347e+00        -2.87798e-02        0.00000e+00        0.00000e+00        0.00000e+00        5.42700e-04 
 8.40        4.09164e+00        -3.23331e-02        0.00000e+00        0.00000e+00        0.00000e+00        6.01104e-04 
 9.10        4.08980e+00        -3.59492e-02        0.00000e+00        0.00000e+00        0.00000e+00        6.59076e-04 
 9.80        4.08796e+00        -3.96270e-02        0.00000e+00        0.00000e+00        0.00000e+00        7.16623e-04 
 10.50        4.08611e+00        -4.33652e-02        0.00000e+00        0.00000e+00        0.00000e+00        7.73752e-04 
 11.20        4.08427e+00        -4.71627e-02        0.00000e+00        0.00000e+00        0.00000e+00        8.30470e-04 
 11.90        4.08241e+00        -5.10183e-02        0.00000e+00        0.00000e+00        0.00000e+00        8.86783e-04 
 12.60        4.08056e+00        -5.49310e-02        0.00000e+00        0.00000e+00        0.00000e+00        9.42698e-04 
 13.30        4.07870e+00        -5.88996e-02        0.00000e+00        0.00000e+00        0.00000e+00        9.98221e-04 
 14.00        4.07683e+00        -6.29230e-02        0.00000e+00        0.00000e+00        0.00000e+00        1.05336e-03 
 14.70        4.07496e+00        -6.70001e-02        0.00000e+00        0.00000e+00        0.00000e+00        1.10811e-03 
 15.40        4.07308e+00        -7.11298e-02        0.00000e+00        0.00000e+00        0.00000e+00        1.16249e-03 
 16.10        4.07120e+00        -7.53110e-02        0.00000e+00        0.00000e+00        0.00000e+00        1.21650e-03 
 16.80        4.06931e+00        -7.95425e-02        0.00000e+00        0.00000e+00        0.00000e+00        1.27014e-03 
 17.50        4.06741e+00        -8.38235e-02        0.00000e+00        0.00000e+00        0.00000e+00        1.32343e-03 
 18.20        4.06550e+00        -8.81526e-02        0.00000e+00        0.00000e+00        0.00000e+00        1.37635e-03 
 18.90        4.06358e+00        -9.25290e-02        0.00000e+00        0.00000e+00        0.00000e+00        1.42893e-03 
 19.60        4.06165e+00        -9.69516e-02        0.00000e+00        0.00000e+00        0.00000e+00        1.48115e-03 
 20.30        4.05972e+00        -1.01419e-01        0.00000e+00        0.00000e+00        0.00000e+00        1.53304e-03 
 21.00        4.05777e+00        -1.05931e-01        0.00000e+00        0.00000e+00        0.00000e+00        1.58458e-03 
 21.70        4.05581e+00        -1.10486e-01        0.00000e+00        0.00000e+00        0.00000e+00        1.63579e-03 
 22.40        4.05384e+00        -1.15083e-01        0.00000e+00        0.00000e+00        0.00000e+00        1.68667e-03 
 23.10        4.05186e+00        -1.19720e-01        0.00000e+00        0.00000e+00        0.00000e+00        1.73721e-03 
 23.80        4.04986e+00        -1.24398e-01        0.00000e+00        0.00000e+00        0.00000e+00        1.78743e-03 
 24.50        4.04785e+00        -1.29115e-01        0.00000e+00        0.00000e+00        0.00000e+00        1.83733e-03 
 25.20        4.04583e+00        -1.33869e-01        0.00000e+00        0.00000e+00        0.00000e+00        1.88691e-03 
 25.90        4.04380e+00        -1.38661e-01        0.00000e+00        0.00000e+00        0.00000e+00        1.93617e-03 
 26.60        4.04175e+00        -1.43488e-01        0.00000e+00        0.00000e+00        0.00000e+00        1.98511e-03 
 27.30        4.03968e+00        -1.48351e-01        0.00000e+00        0.00000e+00        0.00000e+00        2.03374e-03 
 28.00        4.03760e+00        -1.53247e-01        0.00000e+00        0.00000e+00        0.00000e+00        2.08206e-03 
 28.70        4.03550e+00        -1.58177e-01        0.00000e+00        0.00000e+00        0.00000e+00        2.13008e-03 
 29.40        4.03339e+00        -1.63138e-01        0.00000e+00        0.00000e+00        0.00000e+00        2.17779e-03 
 30.10        4.03125e+00        -1.68131e-01        0.00000e+00        0.00000e+00        0.00000e+00        2.22519e-03 
 30.80        4.02911e+00        -1.73154e-01        0.00000e+00        0.00000e+00        0.00000e+00        2.27229e-03 
 31.50        4.02694e+00        -1.78205e-01        0.00000e+00        0.00000e+00        0.00000e+00        2.31909e-03 
 32.20        4.02475e+00        -1.83285e-01        0.00000e+00        0.00000e+00        0.00000e+00        2.36559e-03 
 32.90        4.02255e+00        -1.88393e-01        0.00000e+00        0.00000e+00        0.00000e+00        2.41180e-03 
 33.60        4.02032e+00        -1.93526e-01        0.00000e+00        0.00000e+00        0.00000e+00        2.45770e-03 
 34.30        4.01807e+00        -1.98685e-01        0.00000e+00        0.00000e+00        0.00000e+00        2.50331e-03 
 35.00        4.01581e+00        -2.03868e-01        0.00000e+00        0.00000e+00        0.00000e+00        2.54863e-03 
 35.70        4.01352e+00        -2.09075e-01        0.00000e+00        0.00000e+00        0.00000e+00        2.59366e-03 
 36.40        4.01121e+00        -2.14304e-01        0.00000e+00        0.00000e+00        0.00000e+00        2.63839e-03 
 37.10        4.00888e+00        -2.19555e-01        0.00000e+00        0.00000e+00        0.00000e+00        2.68283e-03 
 37.80        4.00653e+00        -2.24826e-01        0.00000e+00        0.00000e+00        0.00000e+00        2.72698e-03 
 38.50        4.00415e+00        -2.30118e-01        0.00000e+00        0.00000e+00        0.00000e+00        2.77084e-03 
 39.20        4.00175e+00        -2.35428e-01        0.00000e+00        0.00000e+00        0.00000e+00        2.81441e-03 
 39.90        3.99932e+00        -2.40756e-01        0.00000e+00        0.00000e+00        0.00000e+00        2.85770e-03 
 40.60        3.99688e+00        -2.46102e-01        0.00000e+00        0.00000e+00        0.00000e+00        2.90069e-03 
 41.30        3.99440e+00        -2.51463e-01        0.00000e+00        0.00000e+00        0.00000e+00        2.94340e-03 
 42.00        3.99190e+00        -2.56840e-01        0.00000e+00        0.00000e+00        0.00000e+00        2.98582e-03 
 42.70        3.98938e+00        -2.62231e-01        0.00000e+00        0.00000e+00        0.00000e+00        3.02795e-03 
 43.40        3.98683e+00        -2.67636e-01        0.00000e+00        0.00000e+00        0.00000e+00        3.06979e-03 
 44.10        3.98425e+00        -2.73054e-01        0.00000e+00        0.00000e+00        0.00000e+00        3.11135e-03 
 44.80        3.98165e+00        -2.78483e-01        0.00000e+00        0.00000e+00        0.00000e+00        3.15262e-03 
 45.50        3.97902e+00        -2.83923e-01        0.00000e+00        0.00000e+00        0.00000e+00        3.19360e-03 
 46.20        3.97636e+00        -2.89373e-01        0.00000e+00        0.00000e+00        0.00000e+00        3.23429e-03 
 46.90        3.97367e+00        -2.94833e-01        0.00000e+00        0.00000e+00        0.00000e+00        3.27470e-03 
 47.60        3.97096e+00        -3.00301e-01        0.00000e+00        0.00000e+00        0.00000e+00        3.31482e-03 
 48.30        3.96821e+00        -3.05776e-01        0.00000e+00        0.00000e+00        0.00000e+00        3.35465e-03 
 49.00        3.96544e+00        -3.11258e-01        0.00000e+00        0.00000e+00        0.00000e+00        3.39419e-03 
 49.70        3.96264e+00        -3.16746e-01        0.00000e+00        0.00000e+00        0.00000e+00        3.43345e-03 
 50.40        3.95981e+00        -3.22239e-01        0.00000e+00        0.00000e+00        0.00000e+00        3.47242e-03 
 51.10        3.95695e+00        -3.27737e-01        0.00000e+00        0.00000e+00        0.00000e+00        3.51109e-03 
 51.80        3.95405e+00        -3.33238e-01        0.00000e+00        0.00000e+00        0.00000e+00        3.54948e-03 
 52.50        3.95113e+00        -3.38741e-01        0.00000e+00        0.00000e+00        0.00000e+00        3.58758e-03 
 53.20        3.94818e+00        -3.44246e-01        0.00000e+00        0.00000e+00        0.00000e+00        3.62539e-03 
 53.90        3.94519e+00        -3.49752e-01        0.00000e+00        0.00000e+00        0.00000e+00        3.66291e-03 
 54.60        3.94217e+00        -3.55259e-01        0.00000e+00        0.00000e+00        0.00000e+00        3.70013e-03 
 55.30        3.93912e+00        -3.60765e-01        0.00000e+00        0.00000e+00        0.00000e+00        3.73707e-03 
 56.00        3.93604e+00        -3.66269e-01        0.00000e+00        0.00000e+00        0.00000e+00        3.77371e-03 
 56.70        3.93293e+00        -3.71772e-01        0.00000e+00        0.00000e+00        0.00000e+00        3.81006e-03 
 57.40        3.92978e+00        -3.77271e-01        0.00000e+00        0.00000e+00        0.00000e+00        3.84612e-03 
 58.10        3.92660e+00        -3.82767e-01        0.00000e+00        0.00000e+00        0.00000e+00        3.88188e-03 
 58.80        3.92339e+00        -3.88259e-01        0.00000e+00        0.00000e+00        0.00000e+00        3.91735e-03 
 59.50        3.92014e+00        -3.93746e-01        0.00000e+00        0.00000e+00        0.00000e+00        3.95252e-03 
 60.20        3.91686e+00        -3.99226e-01        0.00000e+00        0.00000e+00        0.00000e+00        3.98740e-03 
 60.90        3.91355e+00        -4.04701e-01        0.00000e+00        0.00000e+00        0.00000e+00        4.02198e-03 
 61.60        3.91020e+00        -4.10168e-01        0.00000e+00        0.00000e+00        0.00000e+00        4.05627e-03 
 62.30        3.90682e+00        -4.15627e-01        0.00000e+00        0.00000e+00        0.00000e+00        4.09025e-03 
 63.00        3.90340e+00        -4.21077e-01        0.00000e+00        0.00000e+00        0.00000e+00        4.12394e-03 
 63.70        3.89995e+00        -4.26518e-01        0.00000e+00        0.00000e+00        0.00000e+00        4.15734e-03 
 64.40        3.89646e+00        -4.31949e-01        0.00000e+00        0.00000e+00        0.00000e+00        4.19043e-03 
 65.10        3.89294e+00        -4.37369e-01        0.00000e+00        0.00000e+00        0.00000e+00        4.22322e-03 
 65.80        3.88939e+00        -4.42777e-01        0.00000e+00        0.00000e+00        0.00000e+00        4.25571e-03 
 66.50        3.88580e+00        -4.48174e-01        0.00000e+00        0.00000e+00        0.00000e+00        4.28790e-03 
 67.20        3.88217e+00        -4.53558e-01        0.00000e+00        0.00000e+00        0.00000e+00        4.31979e-03 
 67.90        3.87851e+00        -4.58928e-01        0.00000e+00        0.00000e+00        0.00000e+00        4.35138e-03 
 68.60        3.87481e+00        -4.64284e-01        0.00000e+00        0.00000e+00        0.00000e+00        4.38267e-03 
 69.30        3.87108e+00        -4.69626e-01        0.00000e+00        0.00000e+00        0.00000e+00        4.41365e-03 
 70.00        3.86731e+00        -4.74952e-01        0.00000e+00        0.00000e+00        0.00000e+00        4.44433e-03 
 70.70        3.86351e+00        -4.80263e-01        0.00000e+00        0.00000e+00        0.00000e+00        4.47470e-03 
 71.40        3.85967e+00        -4.85557e-01        0.00000e+00        0.00000e+00        0.00000e+00        4.50477e-03 
 72.10        3.85580e+00        -4.90833e-01        0.00000e+00        0.00000e+00        0.00000e+00        4.53454e-03 
 72.80        3.85188e+00        -4.96093e-01        0.00000e+00        0.00000e+00        0.00000e+00        4.56400e-03 
 73.50        3.84794e+00        -5.01333e-01        0.00000e+00        0.00000e+00        0.00000e+00        4.59316e-03 
 74.20        3.84395e+00        -5.06555e-01        0.00000e+00        0.00000e+00        0.00000e+00        4.62201e-03 
 74.90        3.83994e+00        -5.11758e-01        0.00000e+00        0.00000e+00        0.00000e+00        4.65055e-03 
 75.60        3.83588e+00        -5.16940e-01        0.00000e+00        0.00000e+00        0.00000e+00        4.67879e-03 
 76.30        3.83179e+00        -5.22102e-01        0.00000e+00        0.00000e+00        0.00000e+00        4.70672e-03 
 77.00        3.82767e+00        -5.27243e-01        0.00000e+00        0.00000e+00        0.00000e+00        4.73435e-03 
 77.70        3.82350e+00        -5.32363e-01        0.00000e+00        0.00000e+00        0.00000e+00        4.76166e-03 
 78.40        3.81931e+00        -5.37460e-01        0.00000e+00        0.00000e+00        0.00000e+00        4.78867e-03 
 79.10        3.81507e+00        -5.42534e-01        0.00000e+00        0.00000e+00        0.00000e+00        4.81537e-03 
 79.80        3.81080e+00        -5.47586e-01        0.00000e+00        0.00000e+00        0.00000e+00        4.84177e-03 
 80.50        3.80650e+00        -5.52614e-01        0.00000e+00        0.00000e+00        0.00000e+00        4.86785e-03 
 81.20        3.80216e+00        -5.57617e-01        0.00000e+00        0.00000e+00        0.00000e+00        4.89363e-03 
 81.90        3.79778e+00        -5.62597e-01        0.00000e+00        0.00000e+00        0.00000e+00        4.91910e-03 
 82.60        3.79337e+00        -5.67551e-01        0.00000e+00        0.00000e+00        0.00000e+00        4.94427e-03 
 83.30        3.78893e+00        -5.72480e-01        0.00000e+00        0.00000e+00        0.00000e+00        4.96912e-03 
 84.00        3.78444e+00        -5.77382e-01        0.00000e+00        0.00000e+00        0.00000e+00        4.99367e-03 
 84.70        3.77993e+00        -5.82259e-01        0.00000e+00        0.00000e+00        0.00000e+00        5.01791e-03 
 85.40        3.77538e+00        -5.87108e-01        0.00000e+00        0.00000e+00        0.00000e+00        5.04184e-03 
 86.10        3.77079e+00        -5.91931e-01        0.00000e+00        0.00000e+00        0.00000e+00        5.06547e-03 
 86.80        3.76617e+00        -5.96726e-01        0.00000e+00        0.00000e+00        0.00000e+00        5.08878e-03 
 87.50        3.76152e+00        -6.01492e-01        0.00000e+00        0.00000e+00        0.00000e+00        5.11179e-03 
 88.20        3.75683e+00        -6.06231e-01        0.00000e+00        0.00000e+00        0.00000e+00        5.13450e-03 
 88.90        3.75210e+00        -6.10941e-01        0.00000e+00        0.00000e+00        0.00000e+00        5.15690e-03 
 89.60        3.74735e+00        -6.15621e-01        0.00000e+00        0.00000e+00        0.00000e+00        5.17899e-03 
 90.30        3.74256e+00        -6.20272e-01        0.00000e+00        0.00000e+00        0.00000e+00        5.20077e-03 
 91.00        3.73773e+00        -6.24893e-01        0.00000e+00        0.00000e+00        0.00000e+00        5.22226e-03 
 91.70        3.73287e+00        -6.29484e-01        0.00000e+00        0.00000e+00        0.00000e+00        5.24343e-03 
 92.40        3.72798e+00        -6.34045e-01        0.00000e+00        0.00000e+00        0.00000e+00        5.26430e-03 
 93.10        3.72306e+00        -6.38575e-01        0.00000e+00        0.00000e+00        0.00000e+00        5.28487e-03 
 93.80        3.71810e+00        -6.43073e-01        0.00000e+00        0.00000e+00        0.00000e+00        5.30514e-03 
 94.50        3.71311e+00        -6.47540e-01        0.00000e+00        0.00000e+00        0.00000e+00        5.32510e-03 
 95.20        3.70809e+00        -6.51976e-01        0.00000e+00        0.00000e+00        0.00000e+00        5.34476e-03 
 95.90        3.70304e+00        -6.56379e-01        0.00000e+00        0.00000e+00        0.00000e+00        5.36412e-03 
 96.60        3.69796e+00        -6.60750e-01        0.00000e+00        0.00000e+00        0.00000e+00        5.38318e-03 
 97.30        3.69284e+00        -6.65089e-01        0.00000e+00        0.00000e+00        0.00000e+00        5.40194e-03 
 98.00        3.68769e+00        -6.69394e-01        0.00000e+00        0.00000e+00        0.00000e+00        5.42041e-03 
 98.70        3.68252e+00        -6.73667e-01        0.00000e+00        0.00000e+00        0.00000e+00        5.43857e-03 
 99.40        3.67731e+00        -6.77907e-01        0.00000e+00        0.00000e+00        0.00000e+00        5.45644e-03 
 100.10        3.67207e+00        -6.82112e-01        0.00000e+00        0.00000e+00        0.00000e+00        5.47401e-03 
 100.80        3.66680e+00        -6.86285e-01        0.00000e+00        0.00000e+00        0.00000e+00        5.49128e-03 
 101.50        3.66150e+00        -6.90423e-01        0.00000e+00        0.00000e+00        0.00000e+00        5.50826e-03 
 102.20        3.65618e+00        -6.94527e-01        0.00000e+00        0.00000e+00        0.00000e+00        5.52495e-03 
 102.90        3.65082e+00        -6.98597e-01        0.00000e+00        0.00000e+00        0.00000e+00        5.54134e-03 
 103.60        3.64544e+00        -7.02632e-01        0.00000e+00        0.00000e+00        0.00000e+00        5.55745e-03 
 104.30        3.64002e+00        -7.06633e-01        0.00000e+00        0.00000e+00        0.00000e+00        5.57326e-03 
 105.00        3.63458e+00        -7.10598e-01        0.00000e+00        0.00000e+00        0.00000e+00        5.58878e-03 
 105.70        3.62911e+00        -7.14529e-01        0.00000e+00        0.00000e+00        0.00000e+00        5.60402e-03 
 106.40        3.62362e+00        -7.18425e-01        0.00000e+00        0.00000e+00        0.00000e+00        5.61897e-03 
 107.10        3.61809e+00        -7.22285e-01        0.00000e+00        0.00000e+00        0.00000e+00        5.63364e-03 
 107.80        3.61254e+00        -7.26110e-01        0.00000e+00        0.00000e+00        0.00000e+00        5.64802e-03 
 108.50        3.60696e+00        -7.29899e-01        0.00000e+00        0.00000e+00        0.00000e+00        5.66211e-03 
 109.20        3.60136e+00        -7.33653e-01        0.00000e+00        0.00000e+00        0.00000e+00        5.67593e-03 
 109.90        3.59573e+00        -7.37371e-01        0.00000e+00        0.00000e+00        0.00000e+00        5.68947e-03 
 110.60        3.59008e+00        -7.41053e-01        0.00000e+00        0.00000e+00        0.00000e+00        5.70272e-03 
 111.30        3.58440e+00        -7.44699e-01        0.00000e+00        0.00000e+00        0.00000e+00        5.71570e-03 
 112.00        3.57870e+00        -7.48309e-01        0.00000e+00        0.00000e+00        0.00000e+00        5.72841e-03 
