#Navio B MarAd
#Manobra de Curva Giro
#
#Velocidade Inercial
#
#temp           u           v           r
 0.00        4.11000e+00        0.00000e+00        0.00000e+00 
 0.70        4.11000e+00        8.38136e-05        0.00000e+00 
 1.40        4.11000e+00        1.64115e-04        0.00000e+00 
 2.10        4.10816e+00        -2.68358e-03        0.00000e+00 
 2.80        4.10632e+00        -5.41160e-03        0.00000e+00 
 3.50        4.10449e+00        -8.02057e-03        0.00000e+00 
 4.20        4.10265e+00        -1.05111e-02        0.00000e+00 
 4.90        4.10082e+00        -1.28837e-02        0.00000e+00 
 5.60        4.09899e+00        -1.51389e-02        0.00000e+00 
 6.30        4.09717e+00        -1.72774e-02        0.00000e+00 
 7.00        4.09534e+00        -1.92996e-02        0.00000e+00 
 7.70        4.09352e+00        -2.12060e-02        0.00000e+00 
 8.40        4.09170e+00        -2.29972e-02        0.00000e+00 
 9.10        4.08988e+00        -2.46736e-02        0.00000e+00 
 9.80        4.08806e+00        -2.62358e-02        0.00000e+00 
 10.50        4.08624e+00        -2.76842e-02        0.00000e+00 
 11.20        4.08442e+00        -2.90192e-02        0.00000e+00 
 11.90        4.08260e+00        -3.02413e-02        0.00000e+00 
 12.60        4.08078e+00        -3.13510e-02        0.00000e+00 
 13.30        4.07895e+00        -3.23486e-02        0.00000e+00 
 14.00        4.07713e+00        -3.32346e-02        0.00000e+00 
 14.70        4.07531e+00        -3.40095e-02        0.00000e+00 
 15.40        4.07348e+00        -3.46735e-02        0.00000e+00 
 16.10        4.07165e+00        -3.52272e-02        0.00000e+00 
 16.80        4.06982e+00        -3.56709e-02        0.00000e+00 
 17.50        4.06798e+00        -3.60050e-02        0.00000e+00 
 18.20        4.06614e+00        -3.62299e-02        0.00000e+00 
 18.90        4.06430e+00        -3.63460e-02        0.00000e+00 
 19.60        4.06245e+00        -3.63536e-02        0.00000e+00 
 20.30        4.06059e+00        -3.62532e-02        0.00000e+00 
 21.00        4.05873e+00        -3.60450e-02        0.00000e+00 
 21.70        4.05687e+00        -3.57295e-02        0.00000e+00 
 22.40        4.05499e+00        -3.53070e-02        0.00000e+00 
 23.10        4.05311e+00        -3.47779e-02        0.00000e+00 
 23.80        4.05123e+00        -3.41425e-02        0.00000e+00 
 24.50        4.04933e+00        -3.34013e-02        0.00000e+00 
 25.20        4.04743e+00        -3.25545e-02        0.00000e+00 
 25.90        4.04551e+00        -3.16026e-02        0.00000e+00 
 26.60        4.04359e+00        -3.05458e-02        0.00000e+00 
 27.30        4.04165e+00        -2.93847e-02        0.00000e+00 
 28.00        4.03971e+00        -2.81194e-02        0.00000e+00 
 28.70        4.03775e+00        -2.67504e-02        0.00000e+00 
 29.40        4.03578e+00        -2.52781e-02        0.00000e+00 
 30.10        4.03380e+00        -2.37028e-02        0.00000e+00 
 30.80        4.03181e+00        -2.20249e-02        0.00000e+00 
 31.50        4.02980e+00        -2.02448e-02        0.00000e+00 
 32.20        4.02778e+00        -1.83628e-02        0.00000e+00 
 32.90        4.02574e+00        -1.63794e-02        0.00000e+00 
 33.60        4.02368e+00        -1.42949e-02        0.00000e+00 
 34.30        4.02161e+00        -1.21098e-02        0.00000e+00 
 35.00        4.01953e+00        -9.82439e-03        0.00000e+00 
 35.70        4.01742e+00        -7.43911e-03        0.00000e+00 
 36.40        4.01530e+00        -4.95439e-03        0.00000e+00 
 37.10        4.01316e+00        -2.37063e-03        0.00000e+00 
 37.80        4.01099e+00        3.11744e-04        0.00000e+00 
 38.50        4.00881e+00        3.09230e-03        0.00000e+00 
 39.20        4.00661e+00        5.97059e-03        0.00000e+00 
 39.90        4.00439e+00        8.94618e-03        0.00000e+00 
 40.60        4.00214e+00        1.20186e-02        0.00000e+00 
 41.30        3.99987e+00        1.51874e-02        0.00000e+00 
 42.00        3.99758e+00        1.84522e-02        0.00000e+00 
 42.70        3.99527e+00        2.18124e-02        0.00000e+00 
 43.40        3.99293e+00        2.52675e-02        0.00000e+00 
 44.10        3.99056e+00        2.88171e-02        0.00000e+00 
 44.80        3.98817e+00        3.24606e-02        0.00000e+00 
 45.50        3.98575e+00        3.61976e-02        0.00000e+00 
 46.20        3.98331e+00        4.00275e-02        0.00000e+00 
 46.90        3.98084e+00        4.39499e-02        0.00000e+00 
 47.60        3.97834e+00        4.79640e-02        0.00000e+00 
 48.30        3.97581e+00        5.20695e-02        0.00000e+00 
 49.00        3.97325e+00        5.62657e-02        0.00000e+00 
 49.70        3.97065e+00        6.05521e-02        0.00000e+00 
 50.40        3.96803e+00        6.49281e-02        0.00000e+00 
 51.10        3.96538e+00        6.93930e-02        0.00000e+00 
 51.80        3.96270e+00        7.39464e-02        0.00000e+00 
 52.50        3.95998e+00        7.85876e-02        0.00000e+00 
 53.20        3.95723e+00        8.33159e-02        0.00000e+00 
 53.90        3.95444e+00        8.81308e-02        0.00000e+00 
 54.60        3.95162e+00        9.30315e-02        0.00000e+00 
 55.30        3.94876e+00        9.80175e-02        0.00000e+00 
 56.00        3.94587e+00        1.03088e-01        0.00000e+00 
 56.70        3.94294e+00        1.08242e-01        0.00000e+00 
 57.40        3.93997e+00        1.13480e-01        0.00000e+00 
 58.10        3.93697e+00        1.18800e-01        0.00000e+00 
 58.80        3.93393e+00        1.24202e-01        0.00000e+00 
 59.50        3.93084e+00        1.29685e-01        0.00000e+00 
 60.20        3.92772e+00        1.35249e-01        0.00000e+00 
 60.90        3.92456e+00        1.40891e-01        0.00000e+00 
 61.60        3.92136e+00        1.46613e-01        0.00000e+00 
 62.30        3.91811e+00        1.52413e-01        0.00000e+00 
 63.00        3.91482e+00        1.58290e-01        0.00000e+00 
 63.70        3.91149e+00        1.64244e-01        0.00000e+00 
 64.40        3.90812e+00        1.70273e-01        0.00000e+00 
 65.10        3.90471e+00        1.76378e-01        0.00000e+00 
 65.80        3.90125e+00        1.82556e-01        0.00000e+00 
 66.50        3.89774e+00        1.88808e-01        0.00000e+00 
 67.20        3.89419e+00        1.95132e-01        0.00000e+00 
 67.90        3.89059e+00        2.01528e-01        0.00000e+00 
 68.60        3.88695e+00        2.07994e-01        0.00000e+00 
 69.30        3.88326e+00        2.14530e-01        0.00000e+00 
 70.00        3.87953e+00        2.21135e-01        0.00000e+00 
 70.70        3.87574e+00        2.27809e-01        0.00000e+00 
 71.40        3.87191e+00        2.34549e-01        0.00000e+00 
 72.10        3.86803e+00        2.41356e-01        0.00000e+00 
 72.80        3.86410e+00        2.48228e-01        0.00000e+00 
 73.50        3.86012e+00        2.55165e-01        0.00000e+00 
 74.20        3.85609e+00        2.62165e-01        0.00000e+00 
 74.90        3.85201e+00        2.69227e-01        0.00000e+00 
 75.60        3.84788e+00        2.76352e-01        0.00000e+00 
 76.30        3.84369e+00        2.83536e-01        0.00000e+00 
 77.00        3.83946e+00        2.90781e-01        0.00000e+00 
 77.70        3.83517e+00        2.98084e-01        0.00000e+00 
 78.40        3.83083e+00        3.05445e-01        0.00000e+00 
 79.10        3.82644e+00        3.12863e-01        0.00000e+00 
 79.80        3.82200e+00        3.20336e-01        0.00000e+00 
 80.50        3.81750e+00        3.27864e-01        0.00000e+00 
 81.20        3.81295e+00        3.35446e-01        0.00000e+00 
 81.90        3.80834e+00        3.43081e-01        0.00000e+00 
 82.60        3.80368e+00        3.50767e-01        0.00000e+00 
 83.30        3.79897e+00        3.58504e-01        0.00000e+00 
 84.00        3.79420e+00        3.66290e-01        0.00000e+00 
 84.70        3.78937e+00        3.74125e-01        0.00000e+00 
 85.40        3.78449e+00        3.82008e-01        0.00000e+00 
 86.10        3.77955e+00        3.89937e-01        0.00000e+00 
 86.80        3.77456e+00        3.97911e-01        0.00000e+00 
 87.50        3.76951e+00        4.05930e-01        0.00000e+00 
 88.20        3.76441e+00        4.13992e-01        0.00000e+00 
 88.90        3.75925e+00        4.22096e-01        0.00000e+00 
 89.60        3.75403e+00        4.30241e-01        0.00000e+00 
 90.30        3.74875e+00        4.38426e-01        0.00000e+00 
 91.00        3.74342e+00        4.46651e-01        0.00000e+00 
 91.70        3.73803e+00        4.54913e-01        0.00000e+00 
 92.40        3.73259e+00        4.63212e-01        0.00000e+00 
 93.10        3.72708e+00        4.71547e-01        0.00000e+00 
 93.80        3.72152e+00        4.79917e-01        0.00000e+00 
 94.50        3.71590e+00        4.88320e-01        0.00000e+00 
 95.20        3.71023e+00        4.96755e-01        0.00000e+00 
 95.90        3.70449e+00        5.05222e-01        0.00000e+00 
 96.60        3.69870e+00        5.13719e-01        0.00000e+00 
 97.30        3.69285e+00        5.22246e-01        0.00000e+00 
 98.00        3.68694e+00        5.30800e-01        0.00000e+00 
 98.70        3.68098e+00        5.39382e-01        0.00000e+00 
 99.40        3.67496e+00        5.47989e-01        0.00000e+00 
 100.10        3.66887e+00        5.56622e-01        0.00000e+00 
 100.80        3.66274e+00        5.65278e-01        0.00000e+00 
 101.50        3.65654e+00        5.73957e-01        0.00000e+00 
 102.20        3.65029e+00        5.82657e-01        0.00000e+00 
 102.90        3.64397e+00        5.91378e-01        0.00000e+00 
 103.60        3.63760e+00        6.00118e-01        0.00000e+00 
 104.30        3.63118e+00        6.08877e-01        0.00000e+00 
 105.00        3.62469e+00        6.17653e-01        0.00000e+00 
 105.70        3.61815e+00        6.26445e-01        0.00000e+00 
 106.40        3.61155e+00        6.35252e-01        0.00000e+00 
 107.10        3.60490e+00        6.44074e-01        0.00000e+00 
 107.80        3.59819e+00        6.52908e-01        0.00000e+00 
 108.50        3.59142e+00        6.61754e-01        0.00000e+00 
 109.20        3.58459e+00        6.70611e-01        0.00000e+00 
 109.90        3.57771e+00        6.79479e-01        0.00000e+00 
 110.60        3.57077e+00        6.88355e-01        0.00000e+00 
 111.30        3.56378e+00        6.97238e-01        0.00000e+00 
 112.00        3.55673e+00        7.06129e-01        0.00000e+00 
 112.70        3.54963e+00        7.15025e-01        0.00000e+00 
 113.40        3.54247e+00        7.23926e-01        0.00000e+00 
 114.10        3.53525e+00        7.32831e-01        0.00000e+00 
 114.80        3.52798e+00        7.41738e-01        0.00000e+00 
 115.50        3.52066e+00        7.50647e-01        0.00000e+00 
 116.20        3.51328e+00        7.59557e-01        0.00000e+00 
 116.90        3.50585e+00        7.68466e-01        0.00000e+00 
 117.60        3.49836e+00        7.77374e-01        0.00000e+00 
 118.30        3.49083e+00        7.86280e-01        0.00000e+00 
 119.00        3.48324e+00        7.95183e-01        0.00000e+00 
 119.70        3.47559e+00        8.04082e-01        0.00000e+00 
 120.40        3.46790e+00        8.12975e-01        0.00000e+00 
 121.10        3.46015e+00        8.21863e-01        0.00000e+00 
 121.80        3.45235e+00        8.30743e-01        0.00000e+00 
 122.50        3.44450e+00        8.39616e-01        0.00000e+00 
 123.20        3.43660e+00        8.48480e-01        0.00000e+00 
 123.90        3.42865e+00        8.57334e-01        0.00000e+00 
 124.60        3.42065e+00        8.66178e-01        0.00000e+00 
 125.30        3.41260e+00        8.75010e-01        0.00000e+00 
 126.00        3.40450e+00        8.83830e-01        0.00000e+00 
 126.70        3.39635e+00        8.92636e-01        0.00000e+00 
 127.40        3.38816e+00        9.01429e-01        0.00000e+00 
 128.10        3.37991e+00        9.10206e-01        0.00000e+00 
 128.80        3.37162e+00        9.18968e-01        0.00000e+00 
 129.50        3.36329e+00        9.27713e-01        0.00000e+00 
 130.20        3.35490e+00        9.36441e-01        0.00000e+00 
 130.90        3.34647e+00        9.45151e-01        0.00000e+00 
 131.60        3.33800e+00        9.53841e-01        0.00000e+00 
 132.30        3.32948e+00        9.62512e-01        0.00000e+00 
 133.00        3.32091e+00        9.71163e-01        0.00000e+00 
 133.70        3.31230e+00        9.79792e-01        0.00000e+00 
 134.40        3.30365e+00        9.88399e-01        0.00000e+00 
 135.10        3.29496e+00        9.96983e-01        0.00000e+00 
 135.80        3.28622e+00        1.00554e+00        0.00000e+00 
 136.50        3.27744e+00        1.01408e+00        0.00000e+00 
 137.20        3.26862e+00        1.02259e+00        0.00000e+00 
 137.90        3.25976e+00        1.03108e+00        0.00000e+00 
 138.60        3.25086e+00        1.03954e+00        0.00000e+00 
 139.30        3.24191e+00        1.04797e+00        0.00000e+00 
 140.00        3.23293e+00        1.05637e+00        0.00000e+00 
 140.70        3.22391e+00        1.06475e+00        0.00000e+00 
 141.40        3.21485e+00        1.07310e+00        0.00000e+00 
 142.10        3.20576e+00        1.08141e+00        0.00000e+00 
 142.80        3.19663e+00        1.08970e+00        0.00000e+00 
 143.50        3.18746e+00        1.09796e+00        0.00000e+00 
 144.20        3.17825e+00        1.10618e+00        0.00000e+00 
 144.90        3.16901e+00        1.11438e+00        0.00000e+00 
 145.60        3.15973e+00        1.12254e+00        0.00000e+00 
 146.30        3.15042e+00        1.13066e+00        0.00000e+00 
 147.00        3.14108e+00        1.13876e+00        0.00000e+00 
 147.70        3.13170e+00        1.14682e+00        0.00000e+00 
 148.40        3.12229e+00        1.15484e+00        0.00000e+00 
 149.10        3.11285e+00        1.16283e+00        0.00000e+00 
 149.80        3.10338e+00        1.17078e+00        0.00000e+00 
 150.50        3.09388e+00        1.17870e+00        0.00000e+00 
 151.20        3.08434e+00        1.18658e+00        0.00000e+00 
 151.90        3.07478e+00        1.19443e+00        0.00000e+00 
 152.60        3.06518e+00        1.20223e+00        0.00000e+00 
 153.30        3.05556e+00        1.21000e+00        0.00000e+00 
 154.00        3.04591e+00        1.21773e+00        0.00000e+00 
 154.70        3.03624e+00        1.22542e+00        0.00000e+00 
 155.40        3.02653e+00        1.23307e+00        0.00000e+00 
 156.10        3.01680e+00        1.24068e+00        0.00000e+00 
 156.80        3.00705e+00        1.24825e+00        0.00000e+00 
 157.50        2.99727e+00        1.25578e+00        0.00000e+00 
 158.20        2.98746e+00        1.26327e+00        0.00000e+00 
 158.90        2.97763e+00        1.27071e+00        0.00000e+00 
 159.60        2.96778e+00        1.27812e+00        0.00000e+00 
 160.30        2.95791e+00        1.28548e+00        0.00000e+00 
 161.00        2.94801e+00        1.29281e+00        0.00000e+00 
 161.70        2.93809e+00        1.30008e+00        0.00000e+00 
 162.40        2.92815e+00        1.30732e+00        0.00000e+00 
 163.10        2.91819e+00        1.31451e+00        0.00000e+00 
 163.80        2.90821e+00        1.32166e+00        0.00000e+00 
 164.50        2.89821e+00        1.32877e+00        0.00000e+00 
 165.20        2.88819e+00        1.33583e+00        0.00000e+00 
 165.90        2.87816e+00        1.34284e+00        0.00000e+00 
 166.60        2.86810e+00        1.34982e+00        0.00000e+00 
 167.30        2.85803e+00        1.35674e+00        0.00000e+00 
 168.00        2.84795e+00        1.36362e+00        0.00000e+00 
 168.70        2.83784e+00        1.37046e+00        0.00000e+00 
 169.40        2.82772e+00        1.37725e+00        0.00000e+00 
 170.10        2.81759e+00        1.38400e+00        0.00000e+00 
 170.80        2.80744e+00        1.39070e+00        0.00000e+00 
 171.50        2.79728e+00        1.39735e+00        0.00000e+00 
 172.20        2.78711e+00        1.40396e+00        0.00000e+00 
 172.90        2.77692e+00        1.41052e+00        0.00000e+00 
 173.60        2.76672e+00        1.41703e+00        0.00000e+00 
 174.30        2.75651e+00        1.42350e+00        0.00000e+00 
 175.00        2.74629e+00        1.42992e+00        0.00000e+00 
 175.70        2.73606e+00        1.43629e+00        0.00000e+00 
 176.40        2.72582e+00        1.44262e+00        0.00000e+00 
 177.10        2.71557e+00        1.44890e+00        0.00000e+00 
 177.80        2.70531e+00        1.45513e+00        0.00000e+00 
 178.50        2.69504e+00        1.46132e+00        0.00000e+00 
 179.20        2.68477e+00        1.46745e+00        0.00000e+00 
 179.90        2.67448e+00        1.47354e+00        0.00000e+00 
 180.60        2.66419e+00        1.47959e+00        0.00000e+00 
 181.30        2.65390e+00        1.48558e+00        0.00000e+00 
 182.00        2.64359e+00        1.49153e+00        0.00000e+00 
 182.70        2.63329e+00        1.49743e+00        0.00000e+00 
 183.40        2.62298e+00        1.50328e+00        0.00000e+00 
 184.10        2.61266e+00        1.50908e+00        0.00000e+00 
 184.80        2.60234e+00        1.51483e+00        0.00000e+00 
 185.50        2.59201e+00        1.52054e+00        0.00000e+00 
 186.20        2.58169e+00        1.52620e+00        0.00000e+00 
 186.90        2.57136e+00        1.53181e+00        0.00000e+00 
 187.60        2.56103e+00        1.53738e+00        0.00000e+00 
 188.30        2.55070e+00        1.54289e+00        0.00000e+00 
 189.00        2.54036e+00        1.54836e+00        0.00000e+00 
 189.70        2.53003e+00        1.55378e+00        0.00000e+00 
 190.40        2.51969e+00        1.55915e+00        0.00000e+00 
 191.10        2.50936e+00        1.56447e+00        0.00000e+00 
 191.80        2.49903e+00        1.56975e+00        0.00000e+00 
 192.50        2.48869e+00        1.57498e+00        0.00000e+00 
 193.20        2.47836e+00        1.58016e+00        0.00000e+00 
 193.90        2.46804e+00        1.58529e+00        0.00000e+00 
 194.60        2.45771e+00        1.59038e+00        0.00000e+00 
 195.30        2.44739e+00        1.59541e+00        0.00000e+00 
 196.00        2.43707e+00        1.60040e+00        0.00000e+00 
 196.70        2.42675e+00        1.60535e+00        0.00000e+00 
 197.40        2.41644e+00        1.61024e+00        0.00000e+00 
 198.10        2.40613e+00        1.61509e+00        0.00000e+00 
 198.80        2.39583e+00        1.61989e+00        0.00000e+00 
 199.50        2.38553e+00        1.62465e+00        0.00000e+00 
 200.20        2.37524e+00        1.62935e+00        0.00000e+00 
 200.90        2.36495e+00        1.63401e+00        0.00000e+00 
 201.60        2.35467e+00        1.63863e+00        0.00000e+00 
 202.30        2.34440e+00        1.64320e+00        0.00000e+00 
 203.00        2.33414e+00        1.64772e+00        0.00000e+00 
 203.70        2.32388e+00        1.65219e+00        0.00000e+00 
 204.40        2.31363e+00        1.65662e+00        0.00000e+00 
 205.10        2.30339e+00        1.66100e+00        0.00000e+00 
 205.80        2.29315e+00        1.66534e+00        0.00000e+00 
 206.50        2.28293e+00        1.66963e+00        0.00000e+00 
 207.20        2.27271e+00        1.67387e+00        0.00000e+00 
 207.90        2.26251e+00        1.67807e+00        0.00000e+00 
 208.60        2.25231e+00        1.68223e+00        0.00000e+00 
 209.30        2.24213e+00        1.68633e+00        0.00000e+00 
 210.00        2.23195e+00        1.69040e+00        0.00000e+00 
 210.70        2.22179e+00        1.69442e+00        0.00000e+00 
 211.40        2.21164e+00        1.69839e+00        0.00000e+00 
