#Navio B MarAd
#Manobra de Curva Giro
#
#Velocidade Sistema Solidário 
#
#temp           u           v           w    dot roll   dot pitch     dot yaw 
 0.00        4.11000e+00        0.00000e+00        0.00000e+00        0.00000e+00        0.00000e+00        0.00000e+00 
 0.70        4.11000e+00        8.64984e-05        0.00000e+00        0.00000e+00        0.00000e+00        -1.86400e-06 
 1.40        4.11000e+00        1.74827e-04        0.00000e+00        0.00000e+00        0.00000e+00        -3.71374e-06 
 2.10        4.10779e+00        -3.35570e-03        0.00000e+00        0.00000e+00        0.00000e+00        7.18460e-05 
 2.80        4.10558e+00        -6.95770e-03        0.00000e+00        0.00000e+00        0.00000e+00        1.46780e-04 
 3.50        4.10338e+00        -1.06298e-02        0.00000e+00        0.00000e+00        0.00000e+00        2.21098e-04 
 4.20        4.10118e+00        -1.43705e-02        0.00000e+00        0.00000e+00        0.00000e+00        2.94810e-04 
 4.90        4.09898e+00        -1.81784e-02        0.00000e+00        0.00000e+00        0.00000e+00        3.67924e-04 
 5.60        4.09677e+00        -2.20523e-02        0.00000e+00        0.00000e+00        0.00000e+00        4.40449e-04 
 6.30        4.09457e+00        -2.59906e-02        0.00000e+00        0.00000e+00        0.00000e+00        5.12392e-04 
 7.00        4.09237e+00        -2.99921e-02        0.00000e+00        0.00000e+00        0.00000e+00        5.83763e-04 
 7.70        4.09017e+00        -3.40554e-02        0.00000e+00        0.00000e+00        0.00000e+00        6.54569e-04 
 8.40        4.08796e+00        -3.81791e-02        0.00000e+00        0.00000e+00        0.00000e+00        7.24818e-04 
 9.10        4.08575e+00        -4.23620e-02        0.00000e+00        0.00000e+00        0.00000e+00        7.94516e-04 
 9.80        4.08354e+00        -4.66027e-02        0.00000e+00        0.00000e+00        0.00000e+00        8.63670e-04 
 10.50        4.08132e+00        -5.08999e-02        0.00000e+00        0.00000e+00        0.00000e+00        9.32288e-04 
 11.20        4.07910e+00        -5.52522e-02        0.00000e+00        0.00000e+00        0.00000e+00        1.00038e-03 
 11.90        4.07687e+00        -5.96585e-02        0.00000e+00        0.00000e+00        0.00000e+00        1.06794e-03 
 12.60        4.07463e+00        -6.41174e-02        0.00000e+00        0.00000e+00        0.00000e+00        1.13498e-03 
 13.30        4.07239e+00        -6.86277e-02        0.00000e+00        0.00000e+00        0.00000e+00        1.20152e-03 
 14.00        4.07014e+00        -7.31881e-02        0.00000e+00        0.00000e+00        0.00000e+00        1.26754e-03 
 14.70        4.06789e+00        -7.77973e-02        0.00000e+00        0.00000e+00        0.00000e+00        1.33307e-03 
 15.40        4.06562e+00        -8.24541e-02        0.00000e+00        0.00000e+00        0.00000e+00        1.39810e-03 
 16.10        4.06334e+00        -8.71573e-02        0.00000e+00        0.00000e+00        0.00000e+00        1.46263e-03 
 16.80        4.06106e+00        -9.19056e-02        0.00000e+00        0.00000e+00        0.00000e+00        1.52668e-03 
 17.50        4.05876e+00        -9.66978e-02        0.00000e+00        0.00000e+00        0.00000e+00        1.59025e-03 
 18.20        4.05645e+00        -1.01533e-01        0.00000e+00        0.00000e+00        0.00000e+00        1.65334e-03 
 18.90        4.05413e+00        -1.06409e-01        0.00000e+00        0.00000e+00        0.00000e+00        1.71595e-03 
 19.60        4.05180e+00        -1.11326e-01        0.00000e+00        0.00000e+00        0.00000e+00        1.77810e-03 
 20.30        4.04945e+00        -1.16281e-01        0.00000e+00        0.00000e+00        0.00000e+00        1.83978e-03 
 21.00        4.04709e+00        -1.21275e-01        0.00000e+00        0.00000e+00        0.00000e+00        1.90099e-03 
 21.70        4.04471e+00        -1.26306e-01        0.00000e+00        0.00000e+00        0.00000e+00        1.96175e-03 
 22.40        4.04232e+00        -1.31372e-01        0.00000e+00        0.00000e+00        0.00000e+00        2.02205e-03 
 23.10        4.03991e+00        -1.36472e-01        0.00000e+00        0.00000e+00        0.00000e+00        2.08189e-03 
 23.80        4.03749e+00        -1.41606e-01        0.00000e+00        0.00000e+00        0.00000e+00        2.14129e-03 
 24.50        4.03504e+00        -1.46771e-01        0.00000e+00        0.00000e+00        0.00000e+00        2.20024e-03 
 25.20        4.03258e+00        -1.51968e-01        0.00000e+00        0.00000e+00        0.00000e+00        2.25874e-03 
 25.90        4.03010e+00        -1.57194e-01        0.00000e+00        0.00000e+00        0.00000e+00        2.31680e-03 
 26.60        4.02760e+00        -1.62450e-01        0.00000e+00        0.00000e+00        0.00000e+00        2.37443e-03 
 27.30        4.02508e+00        -1.67732e-01        0.00000e+00        0.00000e+00        0.00000e+00        2.43161e-03 
 28.00        4.02254e+00        -1.73042e-01        0.00000e+00        0.00000e+00        0.00000e+00        2.48836e-03 
 28.70        4.01998e+00        -1.78376e-01        0.00000e+00        0.00000e+00        0.00000e+00        2.54468e-03 
 29.40        4.01740e+00        -1.83735e-01        0.00000e+00        0.00000e+00        0.00000e+00        2.60056e-03 
 30.10        4.01479e+00        -1.89117e-01        0.00000e+00        0.00000e+00        0.00000e+00        2.65602e-03 
 30.80        4.01216e+00        -1.94522e-01        0.00000e+00        0.00000e+00        0.00000e+00        2.71104e-03 
 31.50        4.00951e+00        -1.99947e-01        0.00000e+00        0.00000e+00        0.00000e+00        2.76565e-03 
 32.20        4.00683e+00        -2.05392e-01        0.00000e+00        0.00000e+00        0.00000e+00        2.81982e-03 
 32.90        4.00413e+00        -2.10856e-01        0.00000e+00        0.00000e+00        0.00000e+00        2.87357e-03 
 33.60        4.00141e+00        -2.16338e-01        0.00000e+00        0.00000e+00        0.00000e+00        2.92691e-03 
 34.30        3.99865e+00        -2.21837e-01        0.00000e+00        0.00000e+00        0.00000e+00        2.97982e-03 
 35.00        3.99587e+00        -2.27351e-01        0.00000e+00        0.00000e+00        0.00000e+00        3.03231e-03 
 35.70        3.99307e+00        -2.32880e-01        0.00000e+00        0.00000e+00        0.00000e+00        3.08438e-03 
 36.40        3.99023e+00        -2.38423e-01        0.00000e+00        0.00000e+00        0.00000e+00        3.13603e-03 
 37.10        3.98737e+00        -2.43979e-01        0.00000e+00        0.00000e+00        0.00000e+00        3.18727e-03 
 37.80        3.98448e+00        -2.49546e-01        0.00000e+00        0.00000e+00        0.00000e+00        3.23809e-03 
 38.50        3.98156e+00        -2.55124e-01        0.00000e+00        0.00000e+00        0.00000e+00        3.28850e-03 
 39.20        3.97862e+00        -2.60712e-01        0.00000e+00        0.00000e+00        0.00000e+00        3.33849e-03 
 39.90        3.97564e+00        -2.66308e-01        0.00000e+00        0.00000e+00        0.00000e+00        3.38807e-03 
 40.60        3.97263e+00        -2.71912e-01        0.00000e+00        0.00000e+00        0.00000e+00        3.43724e-03 
 41.30        3.96959e+00        -2.77523e-01        0.00000e+00        0.00000e+00        0.00000e+00        3.48599e-03 
 42.00        3.96652e+00        -2.83139e-01        0.00000e+00        0.00000e+00        0.00000e+00        3.53433e-03 
 42.70        3.96342e+00        -2.88761e-01        0.00000e+00        0.00000e+00        0.00000e+00        3.58227e-03 
 43.40        3.96028e+00        -2.94386e-01        0.00000e+00        0.00000e+00        0.00000e+00        3.62979e-03 
 44.10        3.95711e+00        -3.00015e-01        0.00000e+00        0.00000e+00        0.00000e+00        3.67690e-03 
 44.80        3.95391e+00        -3.05645e-01        0.00000e+00        0.00000e+00        0.00000e+00        3.72360e-03 
 45.50        3.95068e+00        -3.11277e-01        0.00000e+00        0.00000e+00        0.00000e+00        3.76989e-03 
 46.20        3.94741e+00        -3.16908e-01        0.00000e+00        0.00000e+00        0.00000e+00        3.81577e-03 
 46.90        3.94411e+00        -3.22540e-01        0.00000e+00        0.00000e+00        0.00000e+00        3.86124e-03 
 47.60        3.94077e+00        -3.28169e-01        0.00000e+00        0.00000e+00        0.00000e+00        3.90631e-03 
 48.30        3.93740e+00        -3.33796e-01        0.00000e+00        0.00000e+00        0.00000e+00        3.95096e-03 
 49.00        3.93400e+00        -3.39420e-01        0.00000e+00        0.00000e+00        0.00000e+00        3.99521e-03 
 49.70        3.93056e+00        -3.45040e-01        0.00000e+00        0.00000e+00        0.00000e+00        4.03905e-03 
 50.40        3.92708e+00        -3.50655e-01        0.00000e+00        0.00000e+00        0.00000e+00        4.08248e-03 
 51.10        3.92357e+00        -3.56263e-01        0.00000e+00        0.00000e+00        0.00000e+00        4.12551e-03 
 51.80        3.92002e+00        -3.61866e-01        0.00000e+00        0.00000e+00        0.00000e+00        4.16813e-03 
 52.50        3.91643e+00        -3.67460e-01        0.00000e+00        0.00000e+00        0.00000e+00        4.21034e-03 
 53.20        3.91281e+00        -3.73047e-01        0.00000e+00        0.00000e+00        0.00000e+00        4.25214e-03 
 53.90        3.90915e+00        -3.78624e-01        0.00000e+00        0.00000e+00        0.00000e+00        4.29354e-03 
 54.60        3.90545e+00        -3.84191e-01        0.00000e+00        0.00000e+00        0.00000e+00        4.33453e-03 
 55.30        3.90172e+00        -3.89748e-01        0.00000e+00        0.00000e+00        0.00000e+00        4.37511e-03 
 56.00        3.89795e+00        -3.95293e-01        0.00000e+00        0.00000e+00        0.00000e+00        4.41529e-03 
 56.70        3.89414e+00        -4.00826e-01        0.00000e+00        0.00000e+00        0.00000e+00        4.45506e-03 
 57.40        3.89029e+00        -4.06346e-01        0.00000e+00        0.00000e+00        0.00000e+00        4.49443e-03 
 58.10        3.88640e+00        -4.11852e-01        0.00000e+00        0.00000e+00        0.00000e+00        4.53339e-03 
 58.80        3.88248e+00        -4.17344e-01        0.00000e+00        0.00000e+00        0.00000e+00        4.57195e-03 
 59.50        3.87851e+00        -4.22821e-01        0.00000e+00        0.00000e+00        0.00000e+00        4.61010e-03 
 60.20        3.87451e+00        -4.28282e-01        0.00000e+00        0.00000e+00        0.00000e+00        4.64785e-03 
 60.90        3.87047e+00        -4.33726e-01        0.00000e+00        0.00000e+00        0.00000e+00        4.68519e-03 
 61.60        3.86639e+00        -4.39153e-01        0.00000e+00        0.00000e+00        0.00000e+00        4.72213e-03 
 62.30        3.86227e+00        -4.44562e-01        0.00000e+00        0.00000e+00        0.00000e+00        4.75866e-03 
 63.00        3.85812e+00        -4.49952e-01        0.00000e+00        0.00000e+00        0.00000e+00        4.79479e-03 
 63.70        3.85392e+00        -4.55324e-01        0.00000e+00        0.00000e+00        0.00000e+00        4.83052e-03 
 64.40        3.84968e+00        -4.60675e-01        0.00000e+00        0.00000e+00        0.00000e+00        4.86585e-03 
 65.10        3.84541e+00        -4.66006e-01        0.00000e+00        0.00000e+00        0.00000e+00        4.90077e-03 
 65.80        3.84109e+00        -4.71315e-01        0.00000e+00        0.00000e+00        0.00000e+00        4.93529e-03 
 66.50        3.83674e+00        -4.76603e-01        0.00000e+00        0.00000e+00        0.00000e+00        4.96941e-03 
 67.20        3.83235e+00        -4.81869e-01        0.00000e+00        0.00000e+00        0.00000e+00        5.00313e-03 
 67.90        3.82792e+00        -4.87112e-01        0.00000e+00        0.00000e+00        0.00000e+00        5.03645e-03 
 68.60        3.82344e+00        -4.92331e-01        0.00000e+00        0.00000e+00        0.00000e+00        5.06937e-03 
 69.30        3.81893e+00        -4.97526e-01        0.00000e+00        0.00000e+00        0.00000e+00        5.10189e-03 
 70.00        3.81438e+00        -5.02697e-01        0.00000e+00        0.00000e+00        0.00000e+00        5.13401e-03 
 70.70        3.80980e+00        -5.07842e-01        0.00000e+00        0.00000e+00        0.00000e+00        5.16573e-03 
 71.40        3.80517e+00        -5.12962e-01        0.00000e+00        0.00000e+00        0.00000e+00        5.19706e-03 
 72.10        3.80050e+00        -5.18055e-01        0.00000e+00        0.00000e+00        0.00000e+00        5.22799e-03 
 72.80        3.79580e+00        -5.23122e-01        0.00000e+00        0.00000e+00        0.00000e+00        5.25852e-03 
 73.50        3.79105e+00        -5.28162e-01        0.00000e+00        0.00000e+00        0.00000e+00        5.28866e-03 
 74.20        3.78627e+00        -5.33174e-01        0.00000e+00        0.00000e+00        0.00000e+00        5.31841e-03 
 74.90        3.78145e+00        -5.38157e-01        0.00000e+00        0.00000e+00        0.00000e+00        5.34776e-03 
 75.60        3.77659e+00        -5.43112e-01        0.00000e+00        0.00000e+00        0.00000e+00        5.37672e-03 
 76.30        3.77169e+00        -5.48039e-01        0.00000e+00        0.00000e+00        0.00000e+00        5.40528e-03 
 77.00        3.76675e+00        -5.52935e-01        0.00000e+00        0.00000e+00        0.00000e+00        5.43346e-03 
 77.70        3.76178e+00        -5.57802e-01        0.00000e+00        0.00000e+00        0.00000e+00        5.46124e-03 
 78.40        3.75677e+00        -5.62638e-01        0.00000e+00        0.00000e+00        0.00000e+00        5.48864e-03 
 79.10        3.75172e+00        -5.67444e-01        0.00000e+00        0.00000e+00        0.00000e+00        5.51565e-03 
 79.80        3.74663e+00        -5.72218e-01        0.00000e+00        0.00000e+00        0.00000e+00        5.54228e-03 
 80.50        3.74151e+00        -5.76961e-01        0.00000e+00        0.00000e+00        0.00000e+00        5.56851e-03 
 81.20        3.73635e+00        -5.81672e-01        0.00000e+00        0.00000e+00        0.00000e+00        5.59437e-03 
 81.90        3.73115e+00        -5.86351e-01        0.00000e+00        0.00000e+00        0.00000e+00        5.61984e-03 
 82.60        3.72592e+00        -5.90997e-01        0.00000e+00        0.00000e+00        0.00000e+00        5.64493e-03 
 83.30        3.72065e+00        -5.95611e-01        0.00000e+00        0.00000e+00        0.00000e+00        5.66964e-03 
 84.00        3.71534e+00        -6.00191e-01        0.00000e+00        0.00000e+00        0.00000e+00        5.69397e-03 
 84.70        3.71000e+00        -6.04737e-01        0.00000e+00        0.00000e+00        0.00000e+00        5.71792e-03 
 85.40        3.70462e+00        -6.09250e-01        0.00000e+00        0.00000e+00        0.00000e+00        5.74150e-03 
 86.10        3.69921e+00        -6.13728e-01        0.00000e+00        0.00000e+00        0.00000e+00        5.76470e-03 
 86.80        3.69376e+00        -6.18172e-01        0.00000e+00        0.00000e+00        0.00000e+00        5.78753e-03 
 87.50        3.68828e+00        -6.22582e-01        0.00000e+00        0.00000e+00        0.00000e+00        5.80998e-03 
 88.20        3.68277e+00        -6.26956e-01        0.00000e+00        0.00000e+00        0.00000e+00        5.83207e-03 
 88.90        3.67722e+00        -6.31295e-01        0.00000e+00        0.00000e+00        0.00000e+00        5.85378e-03 
 89.60        3.67163e+00        -6.35599e-01        0.00000e+00        0.00000e+00        0.00000e+00        5.87513e-03 
 90.30        3.66601e+00        -6.39867e-01        0.00000e+00        0.00000e+00        0.00000e+00        5.89612e-03 
 91.00        3.66036e+00        -6.44099e-01        0.00000e+00        0.00000e+00        0.00000e+00        5.91674e-03 
 91.70        3.65468e+00        -6.48295e-01        0.00000e+00        0.00000e+00        0.00000e+00        5.93700e-03 
 92.40        3.64897e+00        -6.52455e-01        0.00000e+00        0.00000e+00        0.00000e+00        5.95689e-03 
 93.10        3.64322e+00        -6.56578e-01        0.00000e+00        0.00000e+00        0.00000e+00        5.97643e-03 
 93.80        3.63744e+00        -6.60665e-01        0.00000e+00        0.00000e+00        0.00000e+00        5.99561e-03 
 94.50        3.63163e+00        -6.64715e-01        0.00000e+00        0.00000e+00        0.00000e+00        6.01444e-03 
 95.20        3.62579e+00        -6.68728e-01        0.00000e+00        0.00000e+00        0.00000e+00        6.03292e-03 
 95.90        3.61992e+00        -6.72703e-01        0.00000e+00        0.00000e+00        0.00000e+00        6.05104e-03 
 96.60        3.61402e+00        -6.76642e-01        0.00000e+00        0.00000e+00        0.00000e+00        6.06881e-03 
 97.30        3.60809e+00        -6.80543e-01        0.00000e+00        0.00000e+00        0.00000e+00        6.08624e-03 
 98.00        3.60213e+00        -6.84406e-01        0.00000e+00        0.00000e+00        0.00000e+00        6.10332e-03 
 98.70        3.59614e+00        -6.88232e-01        0.00000e+00        0.00000e+00        0.00000e+00        6.12006e-03 
 99.40        3.59012e+00        -6.92021e-01        0.00000e+00        0.00000e+00        0.00000e+00        6.13645e-03 
 100.10        3.58407e+00        -6.95771e-01        0.00000e+00        0.00000e+00        0.00000e+00        6.15251e-03 
 100.80        3.57800e+00        -6.99483e-01        0.00000e+00        0.00000e+00        0.00000e+00        6.16823e-03 
 101.50        3.57190e+00        -7.03158e-01        0.00000e+00        0.00000e+00        0.00000e+00        6.18362e-03 
 102.20        3.56577e+00        -7.06794e-01        0.00000e+00        0.00000e+00        0.00000e+00        6.19867e-03 
 102.90        3.55961e+00        -7.10393e-01        0.00000e+00        0.00000e+00        0.00000e+00        6.21340e-03 
 103.60        3.55343e+00        -7.13953e-01        0.00000e+00        0.00000e+00        0.00000e+00        6.22779e-03 
 104.30        3.54723e+00        -7.17475e-01        0.00000e+00        0.00000e+00        0.00000e+00        6.24186e-03 
 105.00        3.54100e+00        -7.20959e-01        0.00000e+00        0.00000e+00        0.00000e+00        6.25560e-03 
 105.70        3.53474e+00        -7.24404e-01        0.00000e+00        0.00000e+00        0.00000e+00        6.26903e-03 
 106.40        3.52846e+00        -7.27812e-01        0.00000e+00        0.00000e+00        0.00000e+00        6.28213e-03 
 107.10        3.52215e+00        -7.31181e-01        0.00000e+00        0.00000e+00        0.00000e+00        6.29492e-03 
 107.80        3.51583e+00        -7.34512e-01        0.00000e+00        0.00000e+00        0.00000e+00        6.30739e-03 
 108.50        3.50948e+00        -7.37804e-01        0.00000e+00        0.00000e+00        0.00000e+00        6.31955e-03 
 109.20        3.50310e+00        -7.41059e-01        0.00000e+00        0.00000e+00        0.00000e+00        6.33140e-03 
 109.90        3.49671e+00        -7.44275e-01        0.00000e+00        0.00000e+00        0.00000e+00        6.34294e-03 
 110.60        3.49029e+00        -7.47453e-01        0.00000e+00        0.00000e+00        0.00000e+00        6.35418e-03 
 111.30        3.48385e+00        -7.50593e-01        0.00000e+00        0.00000e+00        0.00000e+00        6.36512e-03 
 112.00        3.47739e+00        -7.53695e-01        0.00000e+00        0.00000e+00        0.00000e+00        6.37575e-03 
