#Navio B MarAd
#Manobra de Curva Giro
#
#Velocidade Sistema Solidário 
#
#temp           u           v           w    dot roll   dot pitch     dot yaw 
 0.00        4.11000e+00        0.00000e+00        0.00000e+00        0.00000e+00        0.00000e+00        0.00000e+00 
 0.70        4.11000e+00        8.64984e-05        0.00000e+00        0.00000e+00        0.00000e+00        -1.86400e-06 
 1.40        4.11000e+00        1.74827e-04        0.00000e+00        0.00000e+00        0.00000e+00        -3.71374e-06 
 2.10        4.10816e+00        -2.75242e-03        0.00000e+00        0.00000e+00        0.00000e+00        5.89500e-05 
 2.80        4.10632e+00        -5.73931e-03        0.00000e+00        0.00000e+00        0.00000e+00        1.21102e-04 
 3.50        4.10448e+00        -8.78475e-03        0.00000e+00        0.00000e+00        0.00000e+00        1.82750e-04 
 4.20        4.10265e+00        -1.18877e-02        0.00000e+00        0.00000e+00        0.00000e+00        2.43903e-04 
 4.90        4.10081e+00        -1.50470e-02        0.00000e+00        0.00000e+00        0.00000e+00        3.04570e-04 
 5.60        4.09898e+00        -1.82616e-02        0.00000e+00        0.00000e+00        0.00000e+00        3.64756e-04 
 6.30        4.09714e+00        -2.15305e-02        0.00000e+00        0.00000e+00        0.00000e+00        4.24471e-04 
 7.00        4.09531e+00        -2.48527e-02        0.00000e+00        0.00000e+00        0.00000e+00        4.83722e-04 
 7.70        4.09347e+00        -2.82271e-02        0.00000e+00        0.00000e+00        0.00000e+00        5.42515e-04 
 8.40        4.09164e+00        -3.16527e-02        0.00000e+00        0.00000e+00        0.00000e+00        6.00858e-04 
 9.10        4.08980e+00        -3.51284e-02        0.00000e+00        0.00000e+00        0.00000e+00        6.58756e-04 
 9.80        4.08796e+00        -3.86533e-02        0.00000e+00        0.00000e+00        0.00000e+00        7.16217e-04 
 10.50        4.08612e+00        -4.22264e-02        0.00000e+00        0.00000e+00        0.00000e+00        7.73247e-04 
 11.20        4.08427e+00        -4.58467e-02        0.00000e+00        0.00000e+00        0.00000e+00        8.29852e-04 
 11.90        4.08242e+00        -4.95131e-02        0.00000e+00        0.00000e+00        0.00000e+00        8.86038e-04 
 12.60        4.08057e+00        -5.32248e-02        0.00000e+00        0.00000e+00        0.00000e+00        9.41810e-04 
 13.30        4.07871e+00        -5.69808e-02        0.00000e+00        0.00000e+00        0.00000e+00        9.97173e-04 
 14.00        4.07684e+00        -6.07800e-02        0.00000e+00        0.00000e+00        0.00000e+00        1.05213e-03 
 14.70        4.07498e+00        -6.46217e-02        0.00000e+00        0.00000e+00        0.00000e+00        1.10670e-03 
 15.40        4.07310e+00        -6.85047e-02        0.00000e+00        0.00000e+00        0.00000e+00        1.16087e-03 
 16.10        4.07122e+00        -7.24282e-02        0.00000e+00        0.00000e+00        0.00000e+00        1.21465e-03 
 16.80        4.06933e+00        -7.63913e-02        0.00000e+00        0.00000e+00        0.00000e+00        1.26804e-03 
 17.50        4.06744e+00        -8.03930e-02        0.00000e+00        0.00000e+00        0.00000e+00        1.32106e-03 
 18.20        4.06554e+00        -8.44324e-02        0.00000e+00        0.00000e+00        0.00000e+00        1.37371e-03 
 18.90        4.06362e+00        -8.85087e-02        0.00000e+00        0.00000e+00        0.00000e+00        1.42598e-03 
 19.60        4.06170e+00        -9.26208e-02        0.00000e+00        0.00000e+00        0.00000e+00        1.47788e-03 
 20.30        4.05978e+00        -9.67680e-02        0.00000e+00        0.00000e+00        0.00000e+00        1.52943e-03 
 21.00        4.05784e+00        -1.00949e-01        0.00000e+00        0.00000e+00        0.00000e+00        1.58061e-03 
 21.70        4.05589e+00        -1.05164e-01        0.00000e+00        0.00000e+00        0.00000e+00        1.63143e-03 
 22.40        4.05393e+00        -1.09411e-01        0.00000e+00        0.00000e+00        0.00000e+00        1.68191e-03 
 23.10        4.05196e+00        -1.13689e-01        0.00000e+00        0.00000e+00        0.00000e+00        1.73203e-03 
 23.80        4.04998e+00        -1.17998e-01        0.00000e+00        0.00000e+00        0.00000e+00        1.78181e-03 
 24.50        4.04798e+00        -1.22337e-01        0.00000e+00        0.00000e+00        0.00000e+00        1.83124e-03 
 25.20        4.04598e+00        -1.26704e-01        0.00000e+00        0.00000e+00        0.00000e+00        1.88034e-03 
 25.90        4.04396e+00        -1.31100e-01        0.00000e+00        0.00000e+00        0.00000e+00        1.92909e-03 
 26.60        4.04193e+00        -1.35523e-01        0.00000e+00        0.00000e+00        0.00000e+00        1.97751e-03 
 27.30        4.03988e+00        -1.39972e-01        0.00000e+00        0.00000e+00        0.00000e+00        2.02560e-03 
 28.00        4.03782e+00        -1.44447e-01        0.00000e+00        0.00000e+00        0.00000e+00        2.07336e-03 
 28.70        4.03575e+00        -1.48946e-01        0.00000e+00        0.00000e+00        0.00000e+00        2.12079e-03 
 29.40        4.03366e+00        -1.53469e-01        0.00000e+00        0.00000e+00        0.00000e+00        2.16789e-03 
 30.10        4.03155e+00        -1.58016e-01        0.00000e+00        0.00000e+00        0.00000e+00        2.21467e-03 
 30.80        4.02943e+00        -1.62584e-01        0.00000e+00        0.00000e+00        0.00000e+00        2.26113e-03 
 31.50        4.02729e+00        -1.67175e-01        0.00000e+00        0.00000e+00        0.00000e+00        2.30727e-03 
 32.20        4.02514e+00        -1.71785e-01        0.00000e+00        0.00000e+00        0.00000e+00        2.35308e-03 
 32.90        4.02296e+00        -1.76416e-01        0.00000e+00        0.00000e+00        0.00000e+00        2.39859e-03 
 33.60        4.02077e+00        -1.81065e-01        0.00000e+00        0.00000e+00        0.00000e+00        2.44378e-03 
 34.30        4.01857e+00        -1.85733e-01        0.00000e+00        0.00000e+00        0.00000e+00        2.48865e-03 
 35.00        4.01634e+00        -1.90419e-01        0.00000e+00        0.00000e+00        0.00000e+00        2.53321e-03 
 35.70        4.01410e+00        -1.95121e-01        0.00000e+00        0.00000e+00        0.00000e+00        2.57747e-03 
 36.40        4.01183e+00        -1.99839e-01        0.00000e+00        0.00000e+00        0.00000e+00        2.62141e-03 
 37.10        4.00955e+00        -2.04572e-01        0.00000e+00        0.00000e+00        0.00000e+00        2.66505e-03 
 37.80        4.00724e+00        -2.09320e-01        0.00000e+00        0.00000e+00        0.00000e+00        2.70837e-03 
 38.50        4.00492e+00        -2.14081e-01        0.00000e+00        0.00000e+00        0.00000e+00        2.75140e-03 
 39.20        4.00257e+00        -2.18855e-01        0.00000e+00        0.00000e+00        0.00000e+00        2.79412e-03 
 39.90        4.00021e+00        -2.23641e-01        0.00000e+00        0.00000e+00        0.00000e+00        2.83653e-03 
 40.60        3.99782e+00        -2.28439e-01        0.00000e+00        0.00000e+00        0.00000e+00        2.87864e-03 
 41.30        3.99541e+00        -2.33247e-01        0.00000e+00        0.00000e+00        0.00000e+00        2.92045e-03 
 42.00        3.99298e+00        -2.38066e-01        0.00000e+00        0.00000e+00        0.00000e+00        2.96196e-03 
 42.70        3.99052e+00        -2.42893e-01        0.00000e+00        0.00000e+00        0.00000e+00        3.00317e-03 
 43.40        3.98805e+00        -2.47729e-01        0.00000e+00        0.00000e+00        0.00000e+00        3.04408e-03 
 44.10        3.98554e+00        -2.52573e-01        0.00000e+00        0.00000e+00        0.00000e+00        3.08468e-03 
 44.80        3.98302e+00        -2.57424e-01        0.00000e+00        0.00000e+00        0.00000e+00        3.12499e-03 
 45.50        3.98047e+00        -2.62281e-01        0.00000e+00        0.00000e+00        0.00000e+00        3.16501e-03 
 46.20        3.97790e+00        -2.67144e-01        0.00000e+00        0.00000e+00        0.00000e+00        3.20472e-03 
 46.90        3.97530e+00        -2.72012e-01        0.00000e+00        0.00000e+00        0.00000e+00        3.24414e-03 
 47.60        3.97268e+00        -2.76884e-01        0.00000e+00        0.00000e+00        0.00000e+00        3.28326e-03 
 48.30        3.97003e+00        -2.81760e-01        0.00000e+00        0.00000e+00        0.00000e+00        3.32208e-03 
 49.00        3.96736e+00        -2.86639e-01        0.00000e+00        0.00000e+00        0.00000e+00        3.36061e-03 
 49.70        3.96466e+00        -2.91520e-01        0.00000e+00        0.00000e+00        0.00000e+00        3.39885e-03 
 50.40        3.96193e+00        -2.96403e-01        0.00000e+00        0.00000e+00        0.00000e+00        3.43678e-03 
 51.10        3.95918e+00        -3.01286e-01        0.00000e+00        0.00000e+00        0.00000e+00        3.47443e-03 
 51.80        3.95641e+00        -3.06170e-01        0.00000e+00        0.00000e+00        0.00000e+00        3.51178e-03 
 52.50        3.95360e+00        -3.11054e-01        0.00000e+00        0.00000e+00        0.00000e+00        3.54883e-03 
 53.20        3.95077e+00        -3.15937e-01        0.00000e+00        0.00000e+00        0.00000e+00        3.58559e-03 
 53.90        3.94791e+00        -3.20818e-01        0.00000e+00        0.00000e+00        0.00000e+00        3.62205e-03 
 54.60        3.94503e+00        -3.25696e-01        0.00000e+00        0.00000e+00        0.00000e+00        3.65823e-03 
 55.30        3.94211e+00        -3.30572e-01        0.00000e+00        0.00000e+00        0.00000e+00        3.69410e-03 
 56.00        3.93917e+00        -3.35445e-01        0.00000e+00        0.00000e+00        0.00000e+00        3.72969e-03 
 56.70        3.93620e+00        -3.40313e-01        0.00000e+00        0.00000e+00        0.00000e+00        3.76498e-03 
 57.40        3.93320e+00        -3.45177e-01        0.00000e+00        0.00000e+00        0.00000e+00        3.79997e-03 
 58.10        3.93018e+00        -3.50035e-01        0.00000e+00        0.00000e+00        0.00000e+00        3.83468e-03 
 58.80        3.92712e+00        -3.54888e-01        0.00000e+00        0.00000e+00        0.00000e+00        3.86909e-03 
 59.50        3.92404e+00        -3.59734e-01        0.00000e+00        0.00000e+00        0.00000e+00        3.90320e-03 
 60.20        3.92092e+00        -3.64573e-01        0.00000e+00        0.00000e+00        0.00000e+00        3.93703e-03 
 60.90        3.91778e+00        -3.69404e-01        0.00000e+00        0.00000e+00        0.00000e+00        3.97056e-03 
 61.60        3.91461e+00        -3.74227e-01        0.00000e+00        0.00000e+00        0.00000e+00        4.00379e-03 
 62.30        3.91141e+00        -3.79042e-01        0.00000e+00        0.00000e+00        0.00000e+00        4.03674e-03 
 63.00        3.90818e+00        -3.83847e-01        0.00000e+00        0.00000e+00        0.00000e+00        4.06939e-03 
 63.70        3.90491e+00        -3.88643e-01        0.00000e+00        0.00000e+00        0.00000e+00        4.10175e-03 
 64.40        3.90162e+00        -3.93428e-01        0.00000e+00        0.00000e+00        0.00000e+00        4.13381e-03 
 65.10        3.89830e+00        -3.98202e-01        0.00000e+00        0.00000e+00        0.00000e+00        4.16559e-03 
 65.80        3.89495e+00        -4.02965e-01        0.00000e+00        0.00000e+00        0.00000e+00        4.19707e-03 
 66.50        3.89157e+00        -4.07715e-01        0.00000e+00        0.00000e+00        0.00000e+00        4.22825e-03 
 67.20        3.88816e+00        -4.12454e-01        0.00000e+00        0.00000e+00        0.00000e+00        4.25915e-03 
 67.90        3.88472e+00        -4.17179e-01        0.00000e+00        0.00000e+00        0.00000e+00        4.28975e-03 
 68.60        3.88124e+00        -4.21891e-01        0.00000e+00        0.00000e+00        0.00000e+00        4.32006e-03 
 69.30        3.87774e+00        -4.26589e-01        0.00000e+00        0.00000e+00        0.00000e+00        4.35008e-03 
 70.00        3.87421e+00        -4.31273e-01        0.00000e+00        0.00000e+00        0.00000e+00        4.37980e-03 
 70.70        3.87064e+00        -4.35942e-01        0.00000e+00        0.00000e+00        0.00000e+00        4.40924e-03 
 71.40        3.86705e+00        -4.40595e-01        0.00000e+00        0.00000e+00        0.00000e+00        4.43838e-03 
 72.10        3.86342e+00        -4.45233e-01        0.00000e+00        0.00000e+00        0.00000e+00        4.46723e-03 
 72.80        3.85977e+00        -4.49855e-01        0.00000e+00        0.00000e+00        0.00000e+00        4.49578e-03 
 73.50        3.85608e+00        -4.54459e-01        0.00000e+00        0.00000e+00        0.00000e+00        4.52405e-03 
 74.20        3.85236e+00        -4.59047e-01        0.00000e+00        0.00000e+00        0.00000e+00        4.55203e-03 
 74.90        3.84862e+00        -4.63617e-01        0.00000e+00        0.00000e+00        0.00000e+00        4.57971e-03 
 75.60        3.84484e+00        -4.68169e-01        0.00000e+00        0.00000e+00        0.00000e+00        4.60710e-03 
 76.30        3.84103e+00        -4.72703e-01        0.00000e+00        0.00000e+00        0.00000e+00        4.63421e-03 
 77.00        3.83719e+00        -4.77218e-01        0.00000e+00        0.00000e+00        0.00000e+00        4.66102e-03 
 77.70        3.83331e+00        -4.81714e-01        0.00000e+00        0.00000e+00        0.00000e+00        4.68754e-03 
 78.40        3.82941e+00        -4.86190e-01        0.00000e+00        0.00000e+00        0.00000e+00        4.71377e-03 
 79.10        3.82548e+00        -4.90646e-01        0.00000e+00        0.00000e+00        0.00000e+00        4.73972e-03 
 79.80        3.82152e+00        -4.95082e-01        0.00000e+00        0.00000e+00        0.00000e+00        4.76537e-03 
 80.50        3.81752e+00        -4.99497e-01        0.00000e+00        0.00000e+00        0.00000e+00        4.79074e-03 
 81.20        3.81350e+00        -5.03891e-01        0.00000e+00        0.00000e+00        0.00000e+00        4.81581e-03 
 81.90        3.80945e+00        -5.08263e-01        0.00000e+00        0.00000e+00        0.00000e+00        4.84060e-03 
 82.60        3.80536e+00        -5.12614e-01        0.00000e+00        0.00000e+00        0.00000e+00        4.86510e-03 
 83.30        3.80125e+00        -5.16942e-01        0.00000e+00        0.00000e+00        0.00000e+00        4.88932e-03 
 84.00        3.79710e+00        -5.21249e-01        0.00000e+00        0.00000e+00        0.00000e+00        4.91324e-03 
 84.70        3.79293e+00        -5.25532e-01        0.00000e+00        0.00000e+00        0.00000e+00        4.93688e-03 
 85.40        3.78872e+00        -5.29792e-01        0.00000e+00        0.00000e+00        0.00000e+00        4.96024e-03 
 86.10        3.78449e+00        -5.34029e-01        0.00000e+00        0.00000e+00        0.00000e+00        4.98331e-03 
 86.80        3.78023e+00        -5.38242e-01        0.00000e+00        0.00000e+00        0.00000e+00        5.00610e-03 
 87.50        3.77593e+00        -5.42431e-01        0.00000e+00        0.00000e+00        0.00000e+00        5.02860e-03 
 88.20        3.77161e+00        -5.46596e-01        0.00000e+00        0.00000e+00        0.00000e+00        5.05081e-03 
 88.90        3.76726e+00        -5.50736e-01        0.00000e+00        0.00000e+00        0.00000e+00        5.07275e-03 
 89.60        3.76288e+00        -5.54851e-01        0.00000e+00        0.00000e+00        0.00000e+00        5.09440e-03 
 90.30        3.75847e+00        -5.58941e-01        0.00000e+00        0.00000e+00        0.00000e+00        5.11577e-03 
 91.00        3.75403e+00        -5.63006e-01        0.00000e+00        0.00000e+00        0.00000e+00        5.13686e-03 
 91.70        3.74956e+00        -5.67045e-01        0.00000e+00        0.00000e+00        0.00000e+00        5.15767e-03 
 92.40        3.74507e+00        -5.71058e-01        0.00000e+00        0.00000e+00        0.00000e+00        5.17821e-03 
 93.10        3.74054e+00        -5.75046e-01        0.00000e+00        0.00000e+00        0.00000e+00        5.19846e-03 
 93.80        3.73599e+00        -5.79006e-01        0.00000e+00        0.00000e+00        0.00000e+00        5.21843e-03 
 94.50        3.73141e+00        -5.82941e-01        0.00000e+00        0.00000e+00        0.00000e+00        5.23813e-03 
 95.20        3.72680e+00        -5.86848e-01        0.00000e+00        0.00000e+00        0.00000e+00        5.25755e-03 
 95.90        3.72217e+00        -5.90728e-01        0.00000e+00        0.00000e+00        0.00000e+00        5.27670e-03 
 96.60        3.71751e+00        -5.94582e-01        0.00000e+00        0.00000e+00        0.00000e+00        5.29557e-03 
 97.30        3.71282e+00        -5.98407e-01        0.00000e+00        0.00000e+00        0.00000e+00        5.31417e-03 
 98.00        3.70810e+00        -6.02206e-01        0.00000e+00        0.00000e+00        0.00000e+00        5.33249e-03 
 98.70        3.70336e+00        -6.05976e-01        0.00000e+00        0.00000e+00        0.00000e+00        5.35054e-03 
 99.40        3.69859e+00        -6.09719e-01        0.00000e+00        0.00000e+00        0.00000e+00        5.36833e-03 
 100.10        3.69379e+00        -6.13433e-01        0.00000e+00        0.00000e+00        0.00000e+00        5.38584e-03 
 100.80        3.68897e+00        -6.17120e-01        0.00000e+00        0.00000e+00        0.00000e+00        5.40308e-03 
 101.50        3.68413e+00        -6.20777e-01        0.00000e+00        0.00000e+00        0.00000e+00        5.42006e-03 
 102.20        3.67925e+00        -6.24407e-01        0.00000e+00        0.00000e+00        0.00000e+00        5.43677e-03 
 102.90        3.67436e+00        -6.28007e-01        0.00000e+00        0.00000e+00        0.00000e+00        5.45321e-03 
 103.60        3.66943e+00        -6.31579e-01        0.00000e+00        0.00000e+00        0.00000e+00        5.46939e-03 
 104.30        3.66449e+00        -6.35122e-01        0.00000e+00        0.00000e+00        0.00000e+00        5.48531e-03 
 105.00        3.65952e+00        -6.38636e-01        0.00000e+00        0.00000e+00        0.00000e+00        5.50097e-03 
 105.70        3.65452e+00        -6.42120e-01        0.00000e+00        0.00000e+00        0.00000e+00        5.51636e-03 
 106.40        3.64950e+00        -6.45575e-01        0.00000e+00        0.00000e+00        0.00000e+00        5.53149e-03 
 107.10        3.64446e+00        -6.49001e-01        0.00000e+00        0.00000e+00        0.00000e+00        5.54637e-03 
 107.80        3.63939e+00        -6.52398e-01        0.00000e+00        0.00000e+00        0.00000e+00        5.56099e-03 
 108.50        3.63430e+00        -6.55764e-01        0.00000e+00        0.00000e+00        0.00000e+00        5.57535e-03 
 109.20        3.62919e+00        -6.59102e-01        0.00000e+00        0.00000e+00        0.00000e+00        5.58946e-03 
 109.90        3.62405e+00        -6.62409e-01        0.00000e+00        0.00000e+00        0.00000e+00        5.60331e-03 
 110.60        3.61890e+00        -6.65687e-01        0.00000e+00        0.00000e+00        0.00000e+00        5.61691e-03 
 111.30        3.61372e+00        -6.68934e-01        0.00000e+00        0.00000e+00        0.00000e+00        5.63027e-03 
 112.00        3.60852e+00        -6.72152e-01        0.00000e+00        0.00000e+00        0.00000e+00        5.64337e-03 
