#Navio B MarAd
#Manobra de Curva de Giro
#
#Velocidade Inercial
#
#temp           u           v           r
 0.00        8.23000e+00        0.00000e+00        0.00000e+00 
 0.70        8.23000e+00        4.12179e-04        0.00000e+00 
 1.40        8.23000e+00        7.90283e-04        0.00000e+00 
 2.10        8.22164e+00        -1.24177e-02        0.00000e+00 
 2.80        8.21330e+00        -2.45328e-02        0.00000e+00 
 3.50        8.20499e+00        -3.55661e-02        0.00000e+00 
 4.20        8.19670e+00        -4.55285e-02        0.00000e+00 
 4.90        8.18843e+00        -5.44300e-02        0.00000e+00 
 5.60        8.18018e+00        -6.22801e-02        0.00000e+00 
 6.30        8.17194e+00        -6.90881e-02        0.00000e+00 
 7.00        8.16371e+00        -7.48626e-02        0.00000e+00 
 7.70        8.15548e+00        -7.96120e-02        0.00000e+00 
 8.40        8.14725e+00        -8.33443e-02        0.00000e+00 
 9.10        8.13901e+00        -8.60672e-02        0.00000e+00 
 9.80        8.13076e+00        -8.77883e-02        0.00000e+00 
 10.50        8.12249e+00        -8.85148e-02        0.00000e+00 
 11.20        8.11418e+00        -8.82539e-02        0.00000e+00 
 11.90        8.10585e+00        -8.70126e-02        0.00000e+00 
 12.60        8.09746e+00        -8.47977e-02        0.00000e+00 
 13.30        8.08902e+00        -8.16163e-02        0.00000e+00 
 14.00        8.08052e+00        -7.74751e-02        0.00000e+00 
 14.70        8.07195e+00        -7.23811e-02        0.00000e+00 
 15.40        8.06329e+00        -6.63412e-02        0.00000e+00 
 16.10        8.05455e+00        -5.93625e-02        0.00000e+00 
 16.80        8.04570e+00        -5.14521e-02        0.00000e+00 
 17.50        8.03674e+00        -4.26174e-02        0.00000e+00 
 18.20        8.02766e+00        -3.28659e-02        0.00000e+00 
 18.90        8.01845e+00        -2.22051e-02        0.00000e+00 
 19.60        8.00909e+00        -1.06432e-02        0.00000e+00 
 20.30        7.99958e+00        1.81167e-03        0.00000e+00 
 21.00        7.98989e+00        1.51511e-02        0.00000e+00 
 21.70        7.98003e+00        2.93663e-02        0.00000e+00 
 22.40        7.96999e+00        4.44481e-02        0.00000e+00 
 23.10        7.95973e+00        6.03872e-02        0.00000e+00 
 23.80        7.94927e+00        7.71737e-02        0.00000e+00 
 24.50        7.93858e+00        9.47975e-02        0.00000e+00 
 25.20        7.92765e+00        1.13248e-01        0.00000e+00 
 25.90        7.91648e+00        1.32514e-01        0.00000e+00 
 26.60        7.90504e+00        1.52585e-01        0.00000e+00 
 27.30        7.89334e+00        1.73449e-01        0.00000e+00 
 28.00        7.88135e+00        1.95093e-01        0.00000e+00 
 28.70        7.86906e+00        2.17505e-01        0.00000e+00 
 29.40        7.85647e+00        2.40672e-01        0.00000e+00 
 30.10        7.84356e+00        2.64581e-01        0.00000e+00 
 30.80        7.83032e+00        2.89218e-01        0.00000e+00 
 31.50        7.81674e+00        3.14568e-01        0.00000e+00 
 32.20        7.80281e+00        3.40616e-01        0.00000e+00 
 32.90        7.78853e+00        3.67349e-01        0.00000e+00 
 33.60        7.77387e+00        3.94750e-01        0.00000e+00 
 34.30        7.75882e+00        4.22802e-01        0.00000e+00 
 35.00        7.74339e+00        4.51491e-01        0.00000e+00 
 35.70        7.72756e+00        4.80800e-01        0.00000e+00 
 36.40        7.71132e+00        5.10710e-01        0.00000e+00 
 37.10        7.69467e+00        5.41205e-01        0.00000e+00 
 37.80        7.67758e+00        5.72268e-01        0.00000e+00 
 38.50        7.66007e+00        6.03879e-01        0.00000e+00 
 39.20        7.64211e+00        6.36022e-01        0.00000e+00 
 39.90        7.62370e+00        6.68676e-01        0.00000e+00 
 40.60        7.60484e+00        7.01824e-01        0.00000e+00 
 41.30        7.58551e+00        7.35445e-01        0.00000e+00 
 42.00        7.56572e+00        7.69522e-01        0.00000e+00 
 42.70        7.54545e+00        8.04033e-01        0.00000e+00 
 43.40        7.52471e+00        8.38959e-01        0.00000e+00 
 44.10        7.50348e+00        8.74281e-01        0.00000e+00 
 44.80        7.48177e+00        9.09978e-01        0.00000e+00 
 45.50        7.45957e+00        9.46031e-01        0.00000e+00 
 46.20        7.43687e+00        9.82418e-01        0.00000e+00 
 46.90        7.41367e+00        1.01912e+00        0.00000e+00 
 47.60        7.38998e+00        1.05611e+00        0.00000e+00 
 48.30        7.36579e+00        1.09338e+00        0.00000e+00 
 49.00        7.34109e+00        1.13090e+00        0.00000e+00 
 49.70        7.31589e+00        1.16866e+00        0.00000e+00 
 50.40        7.29019e+00        1.20663e+00        0.00000e+00 
 51.10        7.26399e+00        1.24478e+00        0.00000e+00 
 51.80        7.23728e+00        1.28311e+00        0.00000e+00 
 52.50        7.21008e+00        1.32160e+00        0.00000e+00 
 53.20        7.18237e+00        1.36021e+00        0.00000e+00 
 53.90        7.15417e+00        1.39893e+00        0.00000e+00 
 54.60        7.12547e+00        1.43775e+00        0.00000e+00 
 55.30        7.09628e+00        1.47664e+00        0.00000e+00 
 56.00        7.06660e+00        1.51558e+00        0.00000e+00 
 56.70        7.03644e+00        1.55456e+00        0.00000e+00 
 57.40        7.00580e+00        1.59355e+00        0.00000e+00 
 58.10        6.97468e+00        1.63254e+00        0.00000e+00 
 58.80        6.94309e+00        1.67151e+00        0.00000e+00 
 59.50        6.91104e+00        1.71044e+00        0.00000e+00 
 60.20        6.87852e+00        1.74931e+00        0.00000e+00 
 60.90        6.84556e+00        1.78811e+00        0.00000e+00 
 61.60        6.81214e+00        1.82681e+00        0.00000e+00 
 62.30        6.77829e+00        1.86541e+00        0.00000e+00 
 63.00        6.74400e+00        1.90389e+00        0.00000e+00 
 63.70        6.70928e+00        1.94222e+00        0.00000e+00 
 64.40        6.67415e+00        1.98040e+00        0.00000e+00 
 65.10        6.63861e+00        2.01841e+00        0.00000e+00 
 65.80        6.60266e+00        2.05624e+00        0.00000e+00 
 66.50        6.56632e+00        2.09386e+00        0.00000e+00 
 67.20        6.52960e+00        2.13128e+00        0.00000e+00 
 67.90        6.49250e+00        2.16846e+00        0.00000e+00 
 68.60        6.45503e+00        2.20541e+00        0.00000e+00 
 69.30        6.41720e+00        2.24210e+00        0.00000e+00 
 70.00        6.37903e+00        2.27853e+00        0.00000e+00 
 70.70        6.34051e+00        2.31468e+00        0.00000e+00 
 71.40        6.30167e+00        2.35054e+00        0.00000e+00 
 72.10        6.26251e+00        2.38611e+00        0.00000e+00 
 72.80        6.22303e+00        2.42137e+00        0.00000e+00 
 73.50        6.18326e+00        2.45631e+00        0.00000e+00 
 74.20        6.14320e+00        2.49091e+00        0.00000e+00 
 74.90        6.10285e+00        2.52519e+00        0.00000e+00 
 75.60        6.06224e+00        2.55911e+00        0.00000e+00 
 76.30        6.02137e+00        2.59268e+00        0.00000e+00 
 77.00        5.98025e+00        2.62589e+00        0.00000e+00 
 77.70        5.93889e+00        2.65872e+00        0.00000e+00 
 78.40        5.89730e+00        2.69118e+00        0.00000e+00 
 79.10        5.85550e+00        2.72326e+00        0.00000e+00 
 79.80        5.81348e+00        2.75494e+00        0.00000e+00 
 80.50        5.77127e+00        2.78623e+00        0.00000e+00 
 81.20        5.72887e+00        2.81712e+00        0.00000e+00 
 81.90        5.68630e+00        2.84760e+00        0.00000e+00 
 82.60        5.64355e+00        2.87767e+00        0.00000e+00 
 83.30        5.60065e+00        2.90732e+00        0.00000e+00 
 84.00        5.55760e+00        2.93655e+00        0.00000e+00 
 84.70        5.51442e+00        2.96536e+00        0.00000e+00 
 85.40        5.47111e+00        2.99374e+00        0.00000e+00 
 86.10        5.42768e+00        3.02169e+00        0.00000e+00 
 86.80        5.38414e+00        3.04921e+00        0.00000e+00 
 87.50        5.34050e+00        3.07630e+00        0.00000e+00 
 88.20        5.29677e+00        3.10295e+00        0.00000e+00 
 88.90        5.25296e+00        3.12915e+00        0.00000e+00 
 89.60        5.20909e+00        3.15492e+00        0.00000e+00 
 90.30        5.16514e+00        3.18025e+00        0.00000e+00 
 91.00        5.12115e+00        3.20513e+00        0.00000e+00 
 91.70        5.07711e+00        3.22958e+00        0.00000e+00 
 92.40        5.03304e+00        3.25358e+00        0.00000e+00 
 93.10        4.98894e+00        3.27713e+00        0.00000e+00 
 93.80        4.94482e+00        3.30025e+00        0.00000e+00 
 94.50        4.90068e+00        3.32292e+00        0.00000e+00 
 95.20        4.85655e+00        3.34514e+00        0.00000e+00 
 95.90        4.81242e+00        3.36693e+00        0.00000e+00 
 96.60        4.76830e+00        3.38828e+00        0.00000e+00 
 97.30        4.72420e+00        3.40919e+00        0.00000e+00 
 98.00        4.68013e+00        3.42966e+00        0.00000e+00 
 98.70        4.63609e+00        3.44969e+00        0.00000e+00 
 99.40        4.59210e+00        3.46929e+00        0.00000e+00 
 100.10        4.54815e+00        3.48846e+00        0.00000e+00 
 100.80        4.50426e+00        3.50720e+00        0.00000e+00 
 101.50        4.46043e+00        3.52551e+00        0.00000e+00 
 102.20        4.41667e+00        3.54340e+00        0.00000e+00 
 102.90        4.37298e+00        3.56086e+00        0.00000e+00 
 103.60        4.32937e+00        3.57790e+00        0.00000e+00 
 104.30        4.28585e+00        3.59453e+00        0.00000e+00 
 105.00        4.24241e+00        3.61074e+00        0.00000e+00 
 105.70        4.19908e+00        3.62654e+00        0.00000e+00 
 106.40        4.15585e+00        3.64193e+00        0.00000e+00 
 107.10        4.11272e+00        3.65692e+00        0.00000e+00 
 107.80        4.06971e+00        3.67151e+00        0.00000e+00 
 108.50        4.02682e+00        3.68570e+00        0.00000e+00 
 109.20        3.98405e+00        3.69949e+00        0.00000e+00 
 109.90        3.94140e+00        3.71289e+00        0.00000e+00 
 110.60        3.89889e+00        3.72591e+00        0.00000e+00 
 111.30        3.85651e+00        3.73854e+00        0.00000e+00 
 112.00        3.81427e+00        3.75080e+00        0.00000e+00 
 112.70        3.77218e+00        3.76267e+00        0.00000e+00 
 113.40        3.73023e+00        3.77418e+00        0.00000e+00 
 114.10        3.68844e+00        3.78532e+00        0.00000e+00 
 114.80        3.64680e+00        3.79609e+00        0.00000e+00 
 115.50        3.60532e+00        3.80650e+00        0.00000e+00 
 116.20        3.56400e+00        3.81656e+00        0.00000e+00 
 116.90        3.52284e+00        3.82627e+00        0.00000e+00 
 117.60        3.48185e+00        3.83562e+00        0.00000e+00 
 118.30        3.44104e+00        3.84464e+00        0.00000e+00 
 119.00        3.40039e+00        3.85332e+00        0.00000e+00 
 119.70        3.35993e+00        3.86166e+00        0.00000e+00 
 120.40        3.31964e+00        3.86966e+00        0.00000e+00 
 121.10        3.27953e+00        3.87735e+00        0.00000e+00 
 121.80        3.23961e+00        3.88471e+00        0.00000e+00 
 122.50        3.19987e+00        3.89175e+00        0.00000e+00 
 123.20        3.16031e+00        3.89848e+00        0.00000e+00 
 123.90        3.12095e+00        3.90489e+00        0.00000e+00 
 124.60        3.08178e+00        3.91100e+00        0.00000e+00 
 125.30        3.04280e+00        3.91681e+00        0.00000e+00 
 126.00        3.00402e+00        3.92232e+00        0.00000e+00 
 126.70        2.96543e+00        3.92754e+00        0.00000e+00 
 127.40        2.92704e+00        3.93247e+00        0.00000e+00 
 128.10        2.88885e+00        3.93711e+00        0.00000e+00 
 128.80        2.85087e+00        3.94148e+00        0.00000e+00 
 129.50        2.81308e+00        3.94556e+00        0.00000e+00 
 130.20        2.77549e+00        3.94937e+00        0.00000e+00 
 130.90        2.73811e+00        3.95292e+00        0.00000e+00 
 131.60        2.70093e+00        3.95620e+00        0.00000e+00 
 132.30        2.66396e+00        3.95921e+00        0.00000e+00 
 133.00        2.62719e+00        3.96198e+00        0.00000e+00 
 133.70        2.59063e+00        3.96448e+00        0.00000e+00 
 134.40        2.55428e+00        3.96674e+00        0.00000e+00 
 135.10        2.51813e+00        3.96876e+00        0.00000e+00 
 135.80        2.48220e+00        3.97053e+00        0.00000e+00 
 136.50        2.44647e+00        3.97206e+00        0.00000e+00 
 137.20        2.41095e+00        3.97336e+00        0.00000e+00 
 137.90        2.37564e+00        3.97443e+00        0.00000e+00 
 138.60        2.34054e+00        3.97527e+00        0.00000e+00 
 139.30        2.30565e+00        3.97589e+00        0.00000e+00 
 140.00        2.27097e+00        3.97630e+00        0.00000e+00 
 140.70        2.23650e+00        3.97648e+00        0.00000e+00 
 141.40        2.20224e+00        3.97645e+00        0.00000e+00 
 142.10        2.16819e+00        3.97622e+00        0.00000e+00 
 142.80        2.13435e+00        3.97578e+00        0.00000e+00 
 143.50        2.10072e+00        3.97514e+00        0.00000e+00 
 144.20        2.06730e+00        3.97430e+00        0.00000e+00 
 144.90        2.03408e+00        3.97326e+00        0.00000e+00 
 145.60        2.00108e+00        3.97203e+00        0.00000e+00 
 146.30        1.96828e+00        3.97062e+00        0.00000e+00 
 147.00        1.93569e+00        3.96902e+00        0.00000e+00 
 147.70        1.90330e+00        3.96709e+00        0.00000e+00 
 148.40        1.87112e+00        3.96500e+00        0.00000e+00 
 149.10        1.83914e+00        3.96273e+00        0.00000e+00 
 149.80        1.80738e+00        3.96029e+00        0.00000e+00 
 150.50        1.77582e+00        3.95769e+00        0.00000e+00 
 151.20        1.74446e+00        3.95492e+00        0.00000e+00 
 151.90        1.71332e+00        3.95200e+00        0.00000e+00 
 152.60        1.68237e+00        3.94892e+00        0.00000e+00 
 153.30        1.65163e+00        3.94569e+00        0.00000e+00 
 154.00        1.62110e+00        3.94230e+00        0.00000e+00 
 154.70        1.59077e+00        3.93877e+00        0.00000e+00 
 155.40        1.56064e+00        3.93509e+00        0.00000e+00 
 156.10        1.53071e+00        3.93127e+00        0.00000e+00 
 156.80        1.50098e+00        3.92731e+00        0.00000e+00 
 157.50        1.47145e+00        3.92321e+00        0.00000e+00 
 158.20        1.44211e+00        3.91898e+00        0.00000e+00 
 158.90        1.41298e+00        3.91462e+00        0.00000e+00 
 159.60        1.38404e+00        3.91012e+00        0.00000e+00 
 160.30        1.35529e+00        3.90550e+00        0.00000e+00 
 161.00        1.32675e+00        3.90075e+00        0.00000e+00 
 161.70        1.29839e+00        3.89588e+00        0.00000e+00 
 162.40        1.27023e+00        3.89089e+00        0.00000e+00 
 163.10        1.24225e+00        3.88578e+00        0.00000e+00 
 163.80        1.21447e+00        3.88056e+00        0.00000e+00 
 164.50        1.18688e+00        3.87522e+00        0.00000e+00 
 165.20        1.15947e+00        3.86977e+00        0.00000e+00 
 165.90        1.13226e+00        3.86421e+00        0.00000e+00 
 166.60        1.10522e+00        3.85854e+00        0.00000e+00 
 167.30        1.07838e+00        3.85277e+00        0.00000e+00 
 168.00        1.05172e+00        3.84690e+00        0.00000e+00 
 168.70        1.02524e+00        3.84092e+00        0.00000e+00 
 169.40        9.98936e-01        3.83484e+00        0.00000e+00 
 170.10        9.72818e-01        3.82867e+00        0.00000e+00 
 170.80        9.46879e-01        3.82241e+00        0.00000e+00 
 171.50        9.21119e-01        3.81604e+00        0.00000e+00 
 172.20        8.95535e-01        3.80959e+00        0.00000e+00 
 172.90        8.70128e-01        3.80305e+00        0.00000e+00 
 173.60        8.44895e-01        3.79642e+00        0.00000e+00 
 174.30        8.19835e-01        3.78970e+00        0.00000e+00 
 175.00        7.94949e-01        3.78290e+00        0.00000e+00 
 175.70        7.70233e-01        3.77602e+00        0.00000e+00 
 176.40        7.45688e-01        3.76905e+00        0.00000e+00 
 177.10        7.21311e-01        3.76200e+00        0.00000e+00 
 177.80        6.97103e-01        3.75488e+00        0.00000e+00 
 178.50        6.73061e-01        3.74768e+00        0.00000e+00 
 179.20        6.49185e-01        3.74040e+00        0.00000e+00 
 179.90        6.25473e-01        3.73305e+00        0.00000e+00 
 180.60        6.01925e-01        3.72563e+00        0.00000e+00 
 181.30        5.78539e-01        3.71814e+00        0.00000e+00 
 182.00        5.55313e-01        3.71058e+00        0.00000e+00 
 182.70        5.32248e-01        3.70295e+00        0.00000e+00 
 183.40        5.09341e-01        3.69526e+00        0.00000e+00 
 184.10        4.86591e-01        3.68749e+00        0.00000e+00 
 184.80        4.63998e-01        3.67967e+00        0.00000e+00 
 185.50        4.41561e-01        3.67178e+00        0.00000e+00 
 186.20        4.19277e-01        3.66383e+00        0.00000e+00 
 186.90        3.97146e-01        3.65583e+00        0.00000e+00 
 187.60        3.75168e-01        3.64776e+00        0.00000e+00 
 188.30        3.53340e-01        3.63963e+00        0.00000e+00 
 189.00        3.31662e-01        3.63145e+00        0.00000e+00 
 189.70        3.10132e-01        3.62321e+00        0.00000e+00 
 190.40        2.88750e-01        3.61492e+00        0.00000e+00 
 191.10        2.67514e-01        3.60658e+00        0.00000e+00 
 191.80        2.46423e-01        3.59818e+00        0.00000e+00 
 192.50        2.25477e-01        3.58973e+00        0.00000e+00 
 193.20        2.04673e-01        3.58124e+00        0.00000e+00 
 193.90        1.84012e-01        3.57269e+00        0.00000e+00 
 194.60        1.63491e-01        3.56410e+00        0.00000e+00 
 195.30        1.43111e-01        3.55545e+00        0.00000e+00 
 196.00        1.22869e-01        3.54677e+00        0.00000e+00 
 196.70        1.02765e-01        3.53803e+00        0.00000e+00 
 197.40        8.27978e-02        3.52926e+00        0.00000e+00 
 198.10        6.29663e-02        3.52044e+00        0.00000e+00 
 198.80        4.32693e-02        3.51158e+00        0.00000e+00 
 199.50        2.37061e-02        3.50267e+00        0.00000e+00 
 200.20        4.27542e-03        3.49373e+00        0.00000e+00 
 200.90        -1.50236e-02        3.48474e+00        0.00000e+00 
 201.60        -3.41921e-02        3.47572e+00        0.00000e+00 
 202.30        -5.32309e-02        3.46666e+00        0.00000e+00 
 203.00        -7.21412e-02        3.45756e+00        0.00000e+00 
 203.70        -9.09238e-02        3.44842e+00        0.00000e+00 
 204.40        -1.09580e-01        3.43925e+00        0.00000e+00 
 205.10        -1.28110e-01        3.43004e+00        0.00000e+00 
 205.80        -1.46516e-01        3.42080e+00        0.00000e+00 
 206.50        -1.64797e-01        3.41152e+00        0.00000e+00 
 207.20        -1.82956e-01        3.40221e+00        0.00000e+00 
 207.90        -2.00993e-01        3.39287e+00        0.00000e+00 
 208.60        -2.18909e-01        3.38350e+00        0.00000e+00 
 209.30        -2.36705e-01        3.37409e+00        0.00000e+00 
 210.00        -2.54382e-01        3.36466e+00        0.00000e+00 
 210.70        -2.71941e-01        3.35519e+00        0.00000e+00 
 211.40        -2.89382e-01        3.34570e+00        0.00000e+00 
