#Navio B MarAd
#Manobra de Curva de Giro
#
#Velocidade Sistema Solidário 
#
#temp           u           v           w    dot roll   dot pitch     dot yaw 
 0.00        8.23000e+00        0.00000e+00        0.00000e+00        0.00000e+00        0.00000e+00        0.00000e+00 
 0.70        8.23000e+00        4.12179e-04        0.00000e+00        0.00000e+00        0.00000e+00        -9.01286e-06 
 1.40        8.23000e+00        8.42206e-04        0.00000e+00        0.00000e+00        0.00000e+00        -1.78848e-05 
 2.10        8.22164e+00        -1.22629e-02        0.00000e+00        0.00000e+00        0.00000e+00        2.67300e-04 
 2.80        8.21330e+00        -2.59149e-02        0.00000e+00        0.00000e+00        0.00000e+00        5.47702e-04 
 3.50        8.20497e+00        -4.00926e-02        0.00000e+00        0.00000e+00        0.00000e+00        8.23477e-04 
 4.20        8.19665e+00        -5.47752e-02        0.00000e+00        0.00000e+00        0.00000e+00        1.09477e-03 
 4.90        8.18832e+00        -6.99424e-02        0.00000e+00        0.00000e+00        0.00000e+00        1.36171e-03 
 5.60        8.17997e+00        -8.55740e-02        0.00000e+00        0.00000e+00        0.00000e+00        1.62442e-03 
 6.30        8.17160e+00        -1.01650e-01        0.00000e+00        0.00000e+00        0.00000e+00        1.88304e-03 
 7.00        8.16320e+00        -1.18152e-01        0.00000e+00        0.00000e+00        0.00000e+00        2.13765e-03 
 7.70        8.15475e+00        -1.35061e-01        0.00000e+00        0.00000e+00        0.00000e+00        2.38838e-03 
 8.40        8.14625e+00        -1.52357e-01        0.00000e+00        0.00000e+00        0.00000e+00        2.63530e-03 
 9.10        8.13769e+00        -1.70022e-01        0.00000e+00        0.00000e+00        0.00000e+00        2.87851e-03 
 9.80        8.12906e+00        -1.88038e-01        0.00000e+00        0.00000e+00        0.00000e+00        3.11810e-03 
 10.50        8.12035e+00        -2.06386e-01        0.00000e+00        0.00000e+00        0.00000e+00        3.35413e-03 
 11.20        8.11154e+00        -2.25051e-01        0.00000e+00        0.00000e+00        0.00000e+00        3.58667e-03 
 11.90        8.10264e+00        -2.44013e-01        0.00000e+00        0.00000e+00        0.00000e+00        3.81579e-03 
 12.60        8.09362e+00        -2.63255e-01        0.00000e+00        0.00000e+00        0.00000e+00        4.04155e-03 
 13.30        8.08449e+00        -2.82761e-01        0.00000e+00        0.00000e+00        0.00000e+00        4.26399e-03 
 14.00        8.07523e+00        -3.02514e-01        0.00000e+00        0.00000e+00        0.00000e+00        4.48318e-03 
 14.70        8.06583e+00        -3.22497e-01        0.00000e+00        0.00000e+00        0.00000e+00        4.69914e-03 
 15.40        8.05628e+00        -3.42694e-01        0.00000e+00        0.00000e+00        0.00000e+00        4.91193e-03 
 16.10        8.04658e+00        -3.63089e-01        0.00000e+00        0.00000e+00        0.00000e+00        5.12157e-03 
 16.80        8.03671e+00        -3.83665e-01        0.00000e+00        0.00000e+00        0.00000e+00        5.32811e-03 
 17.50        8.02668e+00        -4.04408e-01        0.00000e+00        0.00000e+00        0.00000e+00        5.53156e-03 
 18.20        8.01646e+00        -4.25301e-01        0.00000e+00        0.00000e+00        0.00000e+00        5.73196e-03 
 18.90        8.00605e+00        -4.46329e-01        0.00000e+00        0.00000e+00        0.00000e+00        5.92932e-03 
 19.60        7.99544e+00        -4.67478e-01        0.00000e+00        0.00000e+00        0.00000e+00        6.12368e-03 
 20.30        7.98463e+00        -4.88731e-01        0.00000e+00        0.00000e+00        0.00000e+00        6.31503e-03 
 21.00        7.97361e+00        -5.10076e-01        0.00000e+00        0.00000e+00        0.00000e+00        6.50341e-03 
 21.70        7.96237e+00        -5.31497e-01        0.00000e+00        0.00000e+00        0.00000e+00        6.68883e-03 
 22.40        7.95090e+00        -5.52979e-01        0.00000e+00        0.00000e+00        0.00000e+00        6.87129e-03 
 23.10        7.93920e+00        -5.74510e-01        0.00000e+00        0.00000e+00        0.00000e+00        7.05080e-03 
 23.80        7.92727e+00        -5.96075e-01        0.00000e+00        0.00000e+00        0.00000e+00        7.22738e-03 
 24.50        7.91508e+00        -6.17661e-01        0.00000e+00        0.00000e+00        0.00000e+00        7.40103e-03 
 25.20        7.90265e+00        -6.39255e-01        0.00000e+00        0.00000e+00        0.00000e+00        7.57176e-03 
 25.90        7.88996e+00        -6.60843e-01        0.00000e+00        0.00000e+00        0.00000e+00        7.73957e-03 
 26.60        7.87701e+00        -6.82413e-01        0.00000e+00        0.00000e+00        0.00000e+00        7.90447e-03 
 27.30        7.86380e+00        -7.03953e-01        0.00000e+00        0.00000e+00        0.00000e+00        8.06646e-03 
 28.00        7.85031e+00        -7.25449e-01        0.00000e+00        0.00000e+00        0.00000e+00        8.22554e-03 
 28.70        7.83655e+00        -7.46891e-01        0.00000e+00        0.00000e+00        0.00000e+00        8.38171e-03 
 29.40        7.82252e+00        -7.68267e-01        0.00000e+00        0.00000e+00        0.00000e+00        8.53499e-03 
 30.10        7.80820e+00        -7.89564e-01        0.00000e+00        0.00000e+00        0.00000e+00        8.68536e-03 
 30.80        7.79360e+00        -8.10773e-01        0.00000e+00        0.00000e+00        0.00000e+00        8.83283e-03 
 31.50        7.77871e+00        -8.31882e-01        0.00000e+00        0.00000e+00        0.00000e+00        8.97741e-03 
 32.20        7.76354e+00        -8.52880e-01        0.00000e+00        0.00000e+00        0.00000e+00        9.11910e-03 
 32.90        7.74807e+00        -8.73758e-01        0.00000e+00        0.00000e+00        0.00000e+00        9.25790e-03 
 33.60        7.73231e+00        -8.94506e-01        0.00000e+00        0.00000e+00        0.00000e+00        9.39380e-03 
 34.30        7.71626e+00        -9.15113e-01        0.00000e+00        0.00000e+00        0.00000e+00        9.52683e-03 
 35.00        7.69992e+00        -9.35571e-01        0.00000e+00        0.00000e+00        0.00000e+00        9.65698e-03 
 35.70        7.68327e+00        -9.55870e-01        0.00000e+00        0.00000e+00        0.00000e+00        9.78425e-03 
 36.40        7.66634e+00        -9.76003e-01        0.00000e+00        0.00000e+00        0.00000e+00        9.90865e-03 
 37.10        7.64911e+00        -9.95959e-01        0.00000e+00        0.00000e+00        0.00000e+00        1.00302e-02 
 37.80        7.63158e+00        -1.01573e+00        0.00000e+00        0.00000e+00        0.00000e+00        1.01489e-02 
 38.50        7.61376e+00        -1.03531e+00        0.00000e+00        0.00000e+00        0.00000e+00        1.02647e-02 
 39.20        7.59565e+00        -1.05470e+00        0.00000e+00        0.00000e+00        0.00000e+00        1.03777e-02 
 39.90        7.57725e+00        -1.07387e+00        0.00000e+00        0.00000e+00        0.00000e+00        1.04879e-02 
 40.60        7.55856e+00        -1.09284e+00        0.00000e+00        0.00000e+00        0.00000e+00        1.05952e-02 
 41.30        7.53958e+00        -1.11158e+00        0.00000e+00        0.00000e+00        0.00000e+00        1.06998e-02 
 42.00        7.52032e+00        -1.13010e+00        0.00000e+00        0.00000e+00        0.00000e+00        1.08015e-02 
 42.70        7.50077e+00        -1.14839e+00        0.00000e+00        0.00000e+00        0.00000e+00        1.09005e-02 
 43.40        7.48095e+00        -1.16644e+00        0.00000e+00        0.00000e+00        0.00000e+00        1.09967e-02 
 44.10        7.46084e+00        -1.18425e+00        0.00000e+00        0.00000e+00        0.00000e+00        1.10902e-02 
 44.80        7.44047e+00        -1.20181e+00        0.00000e+00        0.00000e+00        0.00000e+00        1.11809e-02 
 45.50        7.41983e+00        -1.21912e+00        0.00000e+00        0.00000e+00        0.00000e+00        1.12689e-02 
 46.20        7.39892e+00        -1.23618e+00        0.00000e+00        0.00000e+00        0.00000e+00        1.13542e-02 
 46.90        7.37775e+00        -1.25297e+00        0.00000e+00        0.00000e+00        0.00000e+00        1.14368e-02 
 47.60        7.35633e+00        -1.26951e+00        0.00000e+00        0.00000e+00        0.00000e+00        1.15168e-02 
 48.30        7.33465e+00        -1.28577e+00        0.00000e+00        0.00000e+00        0.00000e+00        1.15941e-02 
 49.00        7.31272e+00        -1.30177e+00        0.00000e+00        0.00000e+00        0.00000e+00        1.16688e-02 
 49.70        7.29056e+00        -1.31749e+00        0.00000e+00        0.00000e+00        0.00000e+00        1.17410e-02 
 50.40        7.26816e+00        -1.33294e+00        0.00000e+00        0.00000e+00        0.00000e+00        1.18106e-02 
 51.10        7.24552e+00        -1.34811e+00        0.00000e+00        0.00000e+00        0.00000e+00        1.18776e-02 
 51.80        7.22266e+00        -1.36300e+00        0.00000e+00        0.00000e+00        0.00000e+00        1.19421e-02 
 52.50        7.19958e+00        -1.37761e+00        0.00000e+00        0.00000e+00        0.00000e+00        1.20042e-02 
 53.20        7.17629e+00        -1.39194e+00        0.00000e+00        0.00000e+00        0.00000e+00        1.20637e-02 
 53.90        7.15279e+00        -1.40598e+00        0.00000e+00        0.00000e+00        0.00000e+00        1.21209e-02 
 54.60        7.12908e+00        -1.41974e+00        0.00000e+00        0.00000e+00        0.00000e+00        1.21757e-02 
 55.30        7.10518e+00        -1.43321e+00        0.00000e+00        0.00000e+00        0.00000e+00        1.22281e-02 
 56.00        7.08109e+00        -1.44640e+00        0.00000e+00        0.00000e+00        0.00000e+00        1.22781e-02 
 56.70        7.05681e+00        -1.45930e+00        0.00000e+00        0.00000e+00        0.00000e+00        1.23259e-02 
 57.40        7.03236e+00        -1.47192e+00        0.00000e+00        0.00000e+00        0.00000e+00        1.23713e-02 
 58.10        7.00774e+00        -1.48425e+00        0.00000e+00        0.00000e+00        0.00000e+00        1.24146e-02 
 58.80        6.98295e+00        -1.49629e+00        0.00000e+00        0.00000e+00        0.00000e+00        1.24556e-02 
 59.50        6.95800e+00        -1.50805e+00        0.00000e+00        0.00000e+00        0.00000e+00        1.24945e-02 
 60.20        6.93291e+00        -1.51952e+00        0.00000e+00        0.00000e+00        0.00000e+00        1.25312e-02 
 60.90        6.90767e+00        -1.53072e+00        0.00000e+00        0.00000e+00        0.00000e+00        1.25658e-02 
 61.60        6.88229e+00        -1.54163e+00        0.00000e+00        0.00000e+00        0.00000e+00        1.25984e-02 
 62.30        6.85678e+00        -1.55225e+00        0.00000e+00        0.00000e+00        0.00000e+00        1.26289e-02 
 63.00        6.83115e+00        -1.56260e+00        0.00000e+00        0.00000e+00        0.00000e+00        1.26574e-02 
 63.70        6.80539e+00        -1.57268e+00        0.00000e+00        0.00000e+00        0.00000e+00        1.26840e-02 
 64.40        6.77953e+00        -1.58247e+00        0.00000e+00        0.00000e+00        0.00000e+00        1.27087e-02 
 65.10        6.75357e+00        -1.59200e+00        0.00000e+00        0.00000e+00        0.00000e+00        1.27314e-02 
 65.80        6.72750e+00        -1.60125e+00        0.00000e+00        0.00000e+00        0.00000e+00        1.27523e-02 
 66.50        6.70134e+00        -1.61023e+00        0.00000e+00        0.00000e+00        0.00000e+00        1.27714e-02 
 67.20        6.67510e+00        -1.61894e+00        0.00000e+00        0.00000e+00        0.00000e+00        1.27887e-02 
 67.90        6.64878e+00        -1.62739e+00        0.00000e+00        0.00000e+00        0.00000e+00        1.28043e-02 
 68.60        6.62239e+00        -1.63558e+00        0.00000e+00        0.00000e+00        0.00000e+00        1.28181e-02 
 69.30        6.59594e+00        -1.64351e+00        0.00000e+00        0.00000e+00        0.00000e+00        1.28303e-02 
 70.00        6.56942e+00        -1.65118e+00        0.00000e+00        0.00000e+00        0.00000e+00        1.28409e-02 
 70.70        6.54285e+00        -1.65860e+00        0.00000e+00        0.00000e+00        0.00000e+00        1.28498e-02 
 71.40        6.51624e+00        -1.66577e+00        0.00000e+00        0.00000e+00        0.00000e+00        1.28572e-02 
 72.10        6.48958e+00        -1.67268e+00        0.00000e+00        0.00000e+00        0.00000e+00        1.28631e-02 
 72.80        6.46289e+00        -1.67936e+00        0.00000e+00        0.00000e+00        0.00000e+00        1.28675e-02 
 73.50        6.43617e+00        -1.68579e+00        0.00000e+00        0.00000e+00        0.00000e+00        1.28704e-02 
 74.20        6.40942e+00        -1.69198e+00        0.00000e+00        0.00000e+00        0.00000e+00        1.28719e-02 
 74.90        6.38266e+00        -1.69794e+00        0.00000e+00        0.00000e+00        0.00000e+00        1.28721e-02 
 75.60        6.35589e+00        -1.70367e+00        0.00000e+00        0.00000e+00        0.00000e+00        1.28709e-02 
 76.30        6.32911e+00        -1.70916e+00        0.00000e+00        0.00000e+00        0.00000e+00        1.28684e-02 
 77.00        6.30233e+00        -1.71443e+00        0.00000e+00        0.00000e+00        0.00000e+00        1.28646e-02 
 77.70        6.27556e+00        -1.71948e+00        0.00000e+00        0.00000e+00        0.00000e+00        1.28595e-02 
 78.40        6.24879e+00        -1.72432e+00        0.00000e+00        0.00000e+00        0.00000e+00        1.28533e-02 
 79.10        6.22204e+00        -1.72893e+00        0.00000e+00        0.00000e+00        0.00000e+00        1.28459e-02 
 79.80        6.19531e+00        -1.73334e+00        0.00000e+00        0.00000e+00        0.00000e+00        1.28373e-02 
 80.50        6.16860e+00        -1.73753e+00        0.00000e+00        0.00000e+00        0.00000e+00        1.28276e-02 
 81.20        6.14192e+00        -1.74153e+00        0.00000e+00        0.00000e+00        0.00000e+00        1.28169e-02 
 81.90        6.11528e+00        -1.74532e+00        0.00000e+00        0.00000e+00        0.00000e+00        1.28051e-02 
 82.60        6.08868e+00        -1.74891e+00        0.00000e+00        0.00000e+00        0.00000e+00        1.27922e-02 
 83.30        6.06211e+00        -1.75231e+00        0.00000e+00        0.00000e+00        0.00000e+00        1.27784e-02 
 84.00        6.03560e+00        -1.75552e+00        0.00000e+00        0.00000e+00        0.00000e+00        1.27637e-02 
 84.70        6.00914e+00        -1.75854e+00        0.00000e+00        0.00000e+00        0.00000e+00        1.27480e-02 
 85.40        5.98273e+00        -1.76138e+00        0.00000e+00        0.00000e+00        0.00000e+00        1.27314e-02 
 86.10        5.95638e+00        -1.76404e+00        0.00000e+00        0.00000e+00        0.00000e+00        1.27140e-02 
 86.80        5.93009e+00        -1.76653e+00        0.00000e+00        0.00000e+00        0.00000e+00        1.26957e-02 
 87.50        5.90388e+00        -1.76884e+00        0.00000e+00        0.00000e+00        0.00000e+00        1.26766e-02 
 88.20        5.87773e+00        -1.77098e+00        0.00000e+00        0.00000e+00        0.00000e+00        1.26568e-02 
 88.90        5.85165e+00        -1.77295e+00        0.00000e+00        0.00000e+00        0.00000e+00        1.26361e-02 
 89.60        5.82566e+00        -1.77477e+00        0.00000e+00        0.00000e+00        0.00000e+00        1.26148e-02 
 90.30        5.79974e+00        -1.77642e+00        0.00000e+00        0.00000e+00        0.00000e+00        1.25927e-02 
 91.00        5.77391e+00        -1.77792e+00        0.00000e+00        0.00000e+00        0.00000e+00        1.25700e-02 
 91.70        5.74817e+00        -1.77927e+00        0.00000e+00        0.00000e+00        0.00000e+00        1.25466e-02 
 92.40        5.72251e+00        -1.78047e+00        0.00000e+00        0.00000e+00        0.00000e+00        1.25226e-02 
 93.10        5.69695e+00        -1.78152e+00        0.00000e+00        0.00000e+00        0.00000e+00        1.24980e-02 
 93.80        5.67149e+00        -1.78243e+00        0.00000e+00        0.00000e+00        0.00000e+00        1.24729e-02 
 94.50        5.64612e+00        -1.78320e+00        0.00000e+00        0.00000e+00        0.00000e+00        1.24471e-02 
 95.20        5.62085e+00        -1.78383e+00        0.00000e+00        0.00000e+00        0.00000e+00        1.24209e-02 
 95.90        5.59569e+00        -1.78433e+00        0.00000e+00        0.00000e+00        0.00000e+00        1.23941e-02 
 96.60        5.57063e+00        -1.78470e+00        0.00000e+00        0.00000e+00        0.00000e+00        1.23668e-02 
 97.30        5.54568e+00        -1.78495e+00        0.00000e+00        0.00000e+00        0.00000e+00        1.23391e-02 
 98.00        5.52084e+00        -1.78507e+00        0.00000e+00        0.00000e+00        0.00000e+00        1.23109e-02 
 98.70        5.49611e+00        -1.78507e+00        0.00000e+00        0.00000e+00        0.00000e+00        1.22823e-02 
 99.40        5.47150e+00        -1.78496e+00        0.00000e+00        0.00000e+00        0.00000e+00        1.22533e-02 
 100.10        5.44700e+00        -1.78472e+00        0.00000e+00        0.00000e+00        0.00000e+00        1.22238e-02 
 100.80        5.42262e+00        -1.78438e+00        0.00000e+00        0.00000e+00        0.00000e+00        1.21941e-02 
 101.50        5.39836e+00        -1.78393e+00        0.00000e+00        0.00000e+00        0.00000e+00        1.21639e-02 
 102.20        5.37421e+00        -1.78337e+00        0.00000e+00        0.00000e+00        0.00000e+00        1.21335e-02 
 102.90        5.35020e+00        -1.78271e+00        0.00000e+00        0.00000e+00        0.00000e+00        1.21027e-02 
 103.60        5.32630e+00        -1.78195e+00        0.00000e+00        0.00000e+00        0.00000e+00        1.20716e-02 
 104.30        5.30253e+00        -1.78109e+00        0.00000e+00        0.00000e+00        0.00000e+00        1.20403e-02 
 105.00        5.27889e+00        -1.78013e+00        0.00000e+00        0.00000e+00        0.00000e+00        1.20087e-02 
 105.70        5.25537e+00        -1.77908e+00        0.00000e+00        0.00000e+00        0.00000e+00        1.19768e-02 
 106.40        5.23199e+00        -1.77794e+00        0.00000e+00        0.00000e+00        0.00000e+00        1.19447e-02 
 107.10        5.20873e+00        -1.77672e+00        0.00000e+00        0.00000e+00        0.00000e+00        1.19124e-02 
 107.80        5.18560e+00        -1.77540e+00        0.00000e+00        0.00000e+00        0.00000e+00        1.18798e-02 
 108.50        5.16261e+00        -1.77401e+00        0.00000e+00        0.00000e+00        0.00000e+00        1.18471e-02 
 109.20        5.13975e+00        -1.77253e+00        0.00000e+00        0.00000e+00        0.00000e+00        1.18142e-02 
 109.90        5.11702e+00        -1.77098e+00        0.00000e+00        0.00000e+00        0.00000e+00        1.17812e-02 
 110.60        5.09442e+00        -1.76935e+00        0.00000e+00        0.00000e+00        0.00000e+00        1.17480e-02 
 111.30        5.07196e+00        -1.76764e+00        0.00000e+00        0.00000e+00        0.00000e+00        1.17146e-02 
 112.00        5.04964e+00        -1.76587e+00        0.00000e+00        0.00000e+00        0.00000e+00        1.16811e-02 
