#Navio B MarAd
#Manobra de Curva Giro
#
#Velocidade Sistema Solidário 
#
#temp           u           v           w    dot roll   dot pitch     dot yaw 
 0.00        4.11000e+00        0.00000e+00        0.00000e+00        0.00000e+00        0.00000e+00        0.00000e+00 
 0.70        4.11000e+00        8.64984e-05        0.00000e+00        0.00000e+00        0.00000e+00        -1.86400e-06 
 1.40        4.11000e+00        1.74827e-04        0.00000e+00        0.00000e+00        0.00000e+00        -3.71374e-06 
 2.10        4.10816e+00        -2.79628e-03        0.00000e+00        0.00000e+00        0.00000e+00        7.17835e-05 
 2.80        4.10632e+00        -5.84094e-03        0.00000e+00        0.00000e+00        0.00000e+00        1.46612e-04 
 3.50        4.10448e+00        -8.95775e-03        0.00000e+00        0.00000e+00        0.00000e+00        2.20782e-04 
 4.20        4.10265e+00        -1.21453e-02        0.00000e+00        0.00000e+00        0.00000e+00        2.94306e-04 
 4.90        4.10081e+00        -1.54023e-02        0.00000e+00        0.00000e+00        0.00000e+00        3.67191e-04 
 5.60        4.09898e+00        -1.87272e-02        0.00000e+00        0.00000e+00        0.00000e+00        4.39450e-04 
 6.30        4.09714e+00        -2.21188e-02        0.00000e+00        0.00000e+00        0.00000e+00        5.11091e-04 
 7.00        4.09530e+00        -2.55758e-02        0.00000e+00        0.00000e+00        0.00000e+00        5.82123e-04 
 7.70        4.09346e+00        -2.90967e-02        0.00000e+00        0.00000e+00        0.00000e+00        6.52556e-04 
 8.40        4.09162e+00        -3.26803e-02        0.00000e+00        0.00000e+00        0.00000e+00        7.22397e-04 
 9.10        4.08978e+00        -3.63252e-02        0.00000e+00        0.00000e+00        0.00000e+00        7.91657e-04 
 9.80        4.08793e+00        -4.00303e-02        0.00000e+00        0.00000e+00        0.00000e+00        8.60342e-04 
 10.50        4.08608e+00        -4.37941e-02        0.00000e+00        0.00000e+00        0.00000e+00        9.28461e-04 
 11.20        4.08422e+00        -4.76155e-02        0.00000e+00        0.00000e+00        0.00000e+00        9.96022e-04 
 11.90        4.08236e+00        -5.14931e-02        0.00000e+00        0.00000e+00        0.00000e+00        1.06303e-03 
 12.60        4.08049e+00        -5.54257e-02        0.00000e+00        0.00000e+00        0.00000e+00        1.12950e-03 
 13.30        4.07862e+00        -5.94121e-02        0.00000e+00        0.00000e+00        0.00000e+00        1.19542e-03 
 14.00        4.07674e+00        -6.34511e-02        0.00000e+00        0.00000e+00        0.00000e+00        1.26082e-03 
 14.70        4.07485e+00        -6.75414e-02        0.00000e+00        0.00000e+00        0.00000e+00        1.32569e-03 
 15.40        4.07296e+00        -7.16818e-02        0.00000e+00        0.00000e+00        0.00000e+00        1.39005e-03 
 16.10        4.07105e+00        -7.58711e-02        0.00000e+00        0.00000e+00        0.00000e+00        1.45389e-03 
 16.80        4.06914e+00        -8.01082e-02        0.00000e+00        0.00000e+00        0.00000e+00        1.51723e-03 
 17.50        4.06722e+00        -8.43918e-02        0.00000e+00        0.00000e+00        0.00000e+00        1.58007e-03 
 18.20        4.06528e+00        -8.87208e-02        0.00000e+00        0.00000e+00        0.00000e+00        1.64241e-03 
 18.90        4.06334e+00        -9.30939e-02        0.00000e+00        0.00000e+00        0.00000e+00        1.70426e-03 
 19.60        4.06138e+00        -9.75102e-02        0.00000e+00        0.00000e+00        0.00000e+00        1.76563e-03 
 20.30        4.05941e+00        -1.01968e-01        0.00000e+00        0.00000e+00        0.00000e+00        1.82651e-03 
 21.00        4.05743e+00        -1.06467e-01        0.00000e+00        0.00000e+00        0.00000e+00        1.88692e-03 
 21.70        4.05543e+00        -1.11006e-01        0.00000e+00        0.00000e+00        0.00000e+00        1.94686e-03 
 22.40        4.05342e+00        -1.15583e-01        0.00000e+00        0.00000e+00        0.00000e+00        2.00634e-03 
 23.10        4.05140e+00        -1.20197e-01        0.00000e+00        0.00000e+00        0.00000e+00        2.06535e-03 
 23.80        4.04936e+00        -1.24848e-01        0.00000e+00        0.00000e+00        0.00000e+00        2.12390e-03 
 24.50        4.04730e+00        -1.29534e-01        0.00000e+00        0.00000e+00        0.00000e+00        2.18199e-03 
 25.20        4.04523e+00        -1.34254e-01        0.00000e+00        0.00000e+00        0.00000e+00        2.23964e-03 
 25.90        4.04314e+00        -1.39006e-01        0.00000e+00        0.00000e+00        0.00000e+00        2.29684e-03 
 26.60        4.04103e+00        -1.43791e-01        0.00000e+00        0.00000e+00        0.00000e+00        2.35359e-03 
 27.30        4.03890e+00        -1.48607e-01        0.00000e+00        0.00000e+00        0.00000e+00        2.40990e-03 
 28.00        4.03676e+00        -1.53453e-01        0.00000e+00        0.00000e+00        0.00000e+00        2.46578e-03 
 28.70        4.03459e+00        -1.58327e-01        0.00000e+00        0.00000e+00        0.00000e+00        2.52122e-03 
 29.40        4.03241e+00        -1.63229e-01        0.00000e+00        0.00000e+00        0.00000e+00        2.57622e-03 
 30.10        4.03020e+00        -1.68157e-01        0.00000e+00        0.00000e+00        0.00000e+00        2.63080e-03 
 30.80        4.02798e+00        -1.73111e-01        0.00000e+00        0.00000e+00        0.00000e+00        2.68495e-03 
 31.50        4.02573e+00        -1.78090e-01        0.00000e+00        0.00000e+00        0.00000e+00        2.73867e-03 
 32.20        4.02346e+00        -1.83092e-01        0.00000e+00        0.00000e+00        0.00000e+00        2.79198e-03 
 32.90        4.02117e+00        -1.88117e-01        0.00000e+00        0.00000e+00        0.00000e+00        2.84486e-03 
 33.60        4.01885e+00        -1.93164e-01        0.00000e+00        0.00000e+00        0.00000e+00        2.89732e-03 
 34.30        4.01652e+00        -1.98230e-01        0.00000e+00        0.00000e+00        0.00000e+00        2.94937e-03 
 35.00        4.01415e+00        -2.03317e-01        0.00000e+00        0.00000e+00        0.00000e+00        3.00101e-03 
 35.70        4.01176e+00        -2.08422e-01        0.00000e+00        0.00000e+00        0.00000e+00        3.05223e-03 
 36.40        4.00935e+00        -2.13545e-01        0.00000e+00        0.00000e+00        0.00000e+00        3.10304e-03 
 37.10        4.00691e+00        -2.18684e-01        0.00000e+00        0.00000e+00        0.00000e+00        3.15345e-03 
 37.80        4.00445e+00        -2.23839e-01        0.00000e+00        0.00000e+00        0.00000e+00        3.20345e-03 
 38.50        4.00196e+00        -2.29008e-01        0.00000e+00        0.00000e+00        0.00000e+00        3.25304e-03 
 39.20        3.99944e+00        -2.34192e-01        0.00000e+00        0.00000e+00        0.00000e+00        3.30223e-03 
 39.90        3.99689e+00        -2.39388e-01        0.00000e+00        0.00000e+00        0.00000e+00        3.35101e-03 
 40.60        3.99432e+00        -2.44596e-01        0.00000e+00        0.00000e+00        0.00000e+00        3.39940e-03 
 41.30        3.99171e+00        -2.49815e-01        0.00000e+00        0.00000e+00        0.00000e+00        3.44738e-03 
 42.00        3.98908e+00        -2.55045e-01        0.00000e+00        0.00000e+00        0.00000e+00        3.49497e-03 
 42.70        3.98642e+00        -2.60283e-01        0.00000e+00        0.00000e+00        0.00000e+00        3.54216e-03 
 43.40        3.98373e+00        -2.65530e-01        0.00000e+00        0.00000e+00        0.00000e+00        3.58895e-03 
 44.10        3.98101e+00        -2.70784e-01        0.00000e+00        0.00000e+00        0.00000e+00        3.63534e-03 
 44.80        3.97826e+00        -2.76044e-01        0.00000e+00        0.00000e+00        0.00000e+00        3.68135e-03 
 45.50        3.97547e+00        -2.81310e-01        0.00000e+00        0.00000e+00        0.00000e+00        3.72695e-03 
 46.20        3.97266e+00        -2.86581e-01        0.00000e+00        0.00000e+00        0.00000e+00        3.77217e-03 
 46.90        3.96981e+00        -2.91856e-01        0.00000e+00        0.00000e+00        0.00000e+00        3.81699e-03 
 47.60        3.96694e+00        -2.97133e-01        0.00000e+00        0.00000e+00        0.00000e+00        3.86142e-03 
 48.30        3.96403e+00        -3.02413e-01        0.00000e+00        0.00000e+00        0.00000e+00        3.90546e-03 
 49.00        3.96108e+00        -3.07694e-01        0.00000e+00        0.00000e+00        0.00000e+00        3.94912e-03 
 49.70        3.95811e+00        -3.12976e-01        0.00000e+00        0.00000e+00        0.00000e+00        3.99238e-03 
 50.40        3.95510e+00        -3.18258e-01        0.00000e+00        0.00000e+00        0.00000e+00        4.03525e-03 
 51.10        3.95206e+00        -3.23538e-01        0.00000e+00        0.00000e+00        0.00000e+00        4.07774e-03 
 51.80        3.94898e+00        -3.28817e-01        0.00000e+00        0.00000e+00        0.00000e+00        4.11984e-03 
 52.50        3.94587e+00        -3.34092e-01        0.00000e+00        0.00000e+00        0.00000e+00        4.16155e-03 
 53.20        3.94272e+00        -3.39365e-01        0.00000e+00        0.00000e+00        0.00000e+00        4.20288e-03 
 53.90        3.93954e+00        -3.44633e-01        0.00000e+00        0.00000e+00        0.00000e+00        4.24382e-03 
 54.60        3.93633e+00        -3.49896e-01        0.00000e+00        0.00000e+00        0.00000e+00        4.28438e-03 
 55.30        3.93308e+00        -3.55153e-01        0.00000e+00        0.00000e+00        0.00000e+00        4.32456e-03 
 56.00        3.92979e+00        -3.60404e-01        0.00000e+00        0.00000e+00        0.00000e+00        4.36434e-03 
 56.70        3.92647e+00        -3.65647e-01        0.00000e+00        0.00000e+00        0.00000e+00        4.40375e-03 
 57.40        3.92312e+00        -3.70882e-01        0.00000e+00        0.00000e+00        0.00000e+00        4.44277e-03 
 58.10        3.91972e+00        -3.76109e-01        0.00000e+00        0.00000e+00        0.00000e+00        4.48142e-03 
 58.80        3.91629e+00        -3.81327e-01        0.00000e+00        0.00000e+00        0.00000e+00        4.51968e-03 
 59.50        3.91283e+00        -3.86534e-01        0.00000e+00        0.00000e+00        0.00000e+00        4.55755e-03 
 60.20        3.90933e+00        -3.91730e-01        0.00000e+00        0.00000e+00        0.00000e+00        4.59505e-03 
 60.90        3.90579e+00        -3.96915e-01        0.00000e+00        0.00000e+00        0.00000e+00        4.63217e-03 
 61.60        3.90221e+00        -4.02088e-01        0.00000e+00        0.00000e+00        0.00000e+00        4.66891e-03 
 62.30        3.89860e+00        -4.07248e-01        0.00000e+00        0.00000e+00        0.00000e+00        4.70527e-03 
 63.00        3.89495e+00        -4.12394e-01        0.00000e+00        0.00000e+00        0.00000e+00        4.74125e-03 
 63.70        3.89126e+00        -4.17526e-01        0.00000e+00        0.00000e+00        0.00000e+00        4.77685e-03 
 64.40        3.88754e+00        -4.22644e-01        0.00000e+00        0.00000e+00        0.00000e+00        4.81207e-03 
 65.10        3.88378e+00        -4.27746e-01        0.00000e+00        0.00000e+00        0.00000e+00        4.84692e-03 
 65.80        3.87998e+00        -4.32832e-01        0.00000e+00        0.00000e+00        0.00000e+00        4.88139e-03 
 66.50        3.87614e+00        -4.37901e-01        0.00000e+00        0.00000e+00        0.00000e+00        4.91548e-03 
 67.20        3.87226e+00        -4.42954e-01        0.00000e+00        0.00000e+00        0.00000e+00        4.94920e-03 
 67.90        3.86835e+00        -4.47988e-01        0.00000e+00        0.00000e+00        0.00000e+00        4.98254e-03 
 68.60        3.86440e+00        -4.53004e-01        0.00000e+00        0.00000e+00        0.00000e+00        5.01551e-03 
 69.30        3.86042e+00        -4.58001e-01        0.00000e+00        0.00000e+00        0.00000e+00        5.04811e-03 
 70.00        3.85639e+00        -4.62979e-01        0.00000e+00        0.00000e+00        0.00000e+00        5.08033e-03 
 70.70        3.85233e+00        -4.67937e-01        0.00000e+00        0.00000e+00        0.00000e+00        5.11218e-03 
 71.40        3.84823e+00        -4.72874e-01        0.00000e+00        0.00000e+00        0.00000e+00        5.14366e-03 
 72.10        3.84409e+00        -4.77790e-01        0.00000e+00        0.00000e+00        0.00000e+00        5.17476e-03 
 72.80        3.83992e+00        -4.82684e-01        0.00000e+00        0.00000e+00        0.00000e+00        5.20550e-03 
 73.50        3.83570e+00        -4.87556e-01        0.00000e+00        0.00000e+00        0.00000e+00        5.23587e-03 
 74.20        3.83145e+00        -4.92406e-01        0.00000e+00        0.00000e+00        0.00000e+00        5.26586e-03 
 74.90        3.82716e+00        -4.97233e-01        0.00000e+00        0.00000e+00        0.00000e+00        5.29549e-03 
 75.60        3.82284e+00        -5.02036e-01        0.00000e+00        0.00000e+00        0.00000e+00        5.32475e-03 
 76.30        3.81848e+00        -5.06815e-01        0.00000e+00        0.00000e+00        0.00000e+00        5.35365e-03 
 77.00        3.81408e+00        -5.11569e-01        0.00000e+00        0.00000e+00        0.00000e+00        5.38218e-03 
 77.70        3.80964e+00        -5.16299e-01        0.00000e+00        0.00000e+00        0.00000e+00        5.41034e-03 
 78.40        3.80517e+00        -5.21003e-01        0.00000e+00        0.00000e+00        0.00000e+00        5.43814e-03 
 79.10        3.80066e+00        -5.25681e-01        0.00000e+00        0.00000e+00        0.00000e+00        5.46558e-03 
 79.80        3.79611e+00        -5.30333e-01        0.00000e+00        0.00000e+00        0.00000e+00        5.49266e-03 
 80.50        3.79153e+00        -5.34959e-01        0.00000e+00        0.00000e+00        0.00000e+00        5.51937e-03 
 81.20        3.78691e+00        -5.39558e-01        0.00000e+00        0.00000e+00        0.00000e+00        5.54573e-03 
 81.90        3.78225e+00        -5.44129e-01        0.00000e+00        0.00000e+00        0.00000e+00        5.57172e-03 
 82.60        3.77756e+00        -5.48672e-01        0.00000e+00        0.00000e+00        0.00000e+00        5.59736e-03 
 83.30        3.77283e+00        -5.53188e-01        0.00000e+00        0.00000e+00        0.00000e+00        5.62264e-03 
 84.00        3.76807e+00        -5.57675e-01        0.00000e+00        0.00000e+00        0.00000e+00        5.64756e-03 
 84.70        3.76327e+00        -5.62133e-01        0.00000e+00        0.00000e+00        0.00000e+00        5.67213e-03 
 85.40        3.75843e+00        -5.66562e-01        0.00000e+00        0.00000e+00        0.00000e+00        5.69635e-03 
 86.10        3.75356e+00        -5.70961e-01        0.00000e+00        0.00000e+00        0.00000e+00        5.72022e-03 
 86.80        3.74866e+00        -5.75331e-01        0.00000e+00        0.00000e+00        0.00000e+00        5.74373e-03 
 87.50        3.74372e+00        -5.79671e-01        0.00000e+00        0.00000e+00        0.00000e+00        5.76689e-03 
 88.20        3.73875e+00        -5.83980e-01        0.00000e+00        0.00000e+00        0.00000e+00        5.78971e-03 
 88.90        3.73374e+00        -5.88259e-01        0.00000e+00        0.00000e+00        0.00000e+00        5.81218e-03 
 89.60        3.72870e+00        -5.92506e-01        0.00000e+00        0.00000e+00        0.00000e+00        5.83430e-03 
 90.30        3.72362e+00        -5.96723e-01        0.00000e+00        0.00000e+00        0.00000e+00        5.85608e-03 
 91.00        3.71851e+00        -6.00908e-01        0.00000e+00        0.00000e+00        0.00000e+00        5.87751e-03 
 91.70        3.71337e+00        -6.05061e-01        0.00000e+00        0.00000e+00        0.00000e+00        5.89861e-03 
 92.40        3.70820e+00        -6.09183e-01        0.00000e+00        0.00000e+00        0.00000e+00        5.91936e-03 
 93.10        3.70299e+00        -6.13272e-01        0.00000e+00        0.00000e+00        0.00000e+00        5.93978e-03 
 93.80        3.69775e+00        -6.17329e-01        0.00000e+00        0.00000e+00        0.00000e+00        5.95985e-03 
 94.50        3.69248e+00        -6.21353e-01        0.00000e+00        0.00000e+00        0.00000e+00        5.97960e-03 
 95.20        3.68718e+00        -6.25345e-01        0.00000e+00        0.00000e+00        0.00000e+00        5.99901e-03 
 95.90        3.68184e+00        -6.29303e-01        0.00000e+00        0.00000e+00        0.00000e+00        6.01808e-03 
 96.60        3.67648e+00        -6.33229e-01        0.00000e+00        0.00000e+00        0.00000e+00        6.03683e-03 
 97.30        3.67108e+00        -6.37121e-01        0.00000e+00        0.00000e+00        0.00000e+00        6.05524e-03 
 98.00        3.66566e+00        -6.40979e-01        0.00000e+00        0.00000e+00        0.00000e+00        6.07333e-03 
 98.70        3.66020e+00        -6.44804e-01        0.00000e+00        0.00000e+00        0.00000e+00        6.09110e-03 
 99.40        3.65472e+00        -6.48595e-01        0.00000e+00        0.00000e+00        0.00000e+00        6.10854e-03 
 100.10        3.64920e+00        -6.52352e-01        0.00000e+00        0.00000e+00        0.00000e+00        6.12565e-03 
 100.80        3.64366e+00        -6.56075e-01        0.00000e+00        0.00000e+00        0.00000e+00        6.14245e-03 
 101.50        3.63808e+00        -6.59764e-01        0.00000e+00        0.00000e+00        0.00000e+00        6.15893e-03 
 102.20        3.63248e+00        -6.63419e-01        0.00000e+00        0.00000e+00        0.00000e+00        6.17509e-03 
 102.90        3.62686e+00        -6.67039e-01        0.00000e+00        0.00000e+00        0.00000e+00        6.19094e-03 
 103.60        3.62120e+00        -6.70625e-01        0.00000e+00        0.00000e+00        0.00000e+00        6.20647e-03 
 104.30        3.61552e+00        -6.74176e-01        0.00000e+00        0.00000e+00        0.00000e+00        6.22169e-03 
 105.00        3.60981e+00        -6.77692e-01        0.00000e+00        0.00000e+00        0.00000e+00        6.23661e-03 
 105.70        3.60407e+00        -6.81174e-01        0.00000e+00        0.00000e+00        0.00000e+00        6.25121e-03 
 106.40        3.59831e+00        -6.84621e-01        0.00000e+00        0.00000e+00        0.00000e+00        6.26551e-03 
 107.10        3.59252e+00        -6.88033e-01        0.00000e+00        0.00000e+00        0.00000e+00        6.27951e-03 
 107.80        3.58670e+00        -6.91410e-01        0.00000e+00        0.00000e+00        0.00000e+00        6.29321e-03 
 108.50        3.58087e+00        -6.94752e-01        0.00000e+00        0.00000e+00        0.00000e+00        6.30660e-03 
 109.20        3.57500e+00        -6.98059e-01        0.00000e+00        0.00000e+00        0.00000e+00        6.31970e-03 
 109.90        3.56911e+00        -7.01331e-01        0.00000e+00        0.00000e+00        0.00000e+00        6.33251e-03 
 110.60        3.56320e+00        -7.04568e-01        0.00000e+00        0.00000e+00        0.00000e+00        6.34502e-03 
 111.30        3.55727e+00        -7.07770e-01        0.00000e+00        0.00000e+00        0.00000e+00        6.35724e-03 
 112.00        3.55131e+00        -7.10937e-01        0.00000e+00        0.00000e+00        0.00000e+00        6.36917e-03 
