#Navio B MarAd
#Manobra de Curva Giro
#
#Velocidade Inercial
#
#temp           u           v           r
 0.00        4.11000e+00        0.00000e+00        0.00000e+00 
 0.70        4.11000e+00        8.38136e-05        0.00000e+00 
 1.40        4.11000e+00        1.64115e-04        0.00000e+00 
 2.10        4.10816e+00        -2.72163e-03        0.00000e+00 
 2.80        4.10632e+00        -5.45360e-03        0.00000e+00 
 3.50        4.10448e+00        -8.03268e-03        0.00000e+00 
 4.20        4.10265e+00        -1.04597e-02        0.00000e+00 
 4.90        4.10082e+00        -1.27355e-02        0.00000e+00 
 5.60        4.09899e+00        -1.48609e-02        0.00000e+00 
 6.30        4.09716e+00        -1.68367e-02        0.00000e+00 
 7.00        4.09534e+00        -1.86637e-02        0.00000e+00 
 7.70        4.09351e+00        -2.03425e-02        0.00000e+00 
 8.40        4.09169e+00        -2.18740e-02        0.00000e+00 
 9.10        4.08987e+00        -2.32589e-02        0.00000e+00 
 9.80        4.08804e+00        -2.44979e-02        0.00000e+00 
 10.50        4.08622e+00        -2.55916e-02        0.00000e+00 
 11.20        4.08440e+00        -2.65407e-02        0.00000e+00 
 11.90        4.08258e+00        -2.73460e-02        0.00000e+00 
 12.60        4.08075e+00        -2.80080e-02        0.00000e+00 
 13.30        4.07893e+00        -2.85275e-02        0.00000e+00 
 14.00        4.07710e+00        -2.89049e-02        0.00000e+00 
 14.70        4.07527e+00        -2.91410e-02        0.00000e+00 
 15.40        4.07344e+00        -2.92364e-02        0.00000e+00 
 16.10        4.07160e+00        -2.91916e-02        0.00000e+00 
 16.80        4.06976e+00        -2.90073e-02        0.00000e+00 
 17.50        4.06792e+00        -2.86840e-02        0.00000e+00 
 18.20        4.06607e+00        -2.82224e-02        0.00000e+00 
 18.90        4.06421e+00        -2.76230e-02        0.00000e+00 
 19.60        4.06235e+00        -2.68864e-02        0.00000e+00 
 20.30        4.06048e+00        -2.60131e-02        0.00000e+00 
 21.00        4.05861e+00        -2.50037e-02        0.00000e+00 
 21.70        4.05672e+00        -2.38588e-02        0.00000e+00 
 22.40        4.05483e+00        -2.25790e-02        0.00000e+00 
 23.10        4.05293e+00        -2.11648e-02        0.00000e+00 
 23.80        4.05101e+00        -1.96167e-02        0.00000e+00 
 24.50        4.04909e+00        -1.79354e-02        0.00000e+00 
 25.20        4.04716e+00        -1.61214e-02        0.00000e+00 
 25.90        4.04521e+00        -1.41752e-02        0.00000e+00 
 26.60        4.04325e+00        -1.20975e-02        0.00000e+00 
 27.30        4.04127e+00        -9.88879e-03        0.00000e+00 
 28.00        4.03928e+00        -7.54963e-03        0.00000e+00 
 28.70        4.03728e+00        -5.08063e-03        0.00000e+00 
 29.40        4.03526e+00        -2.48236e-03        0.00000e+00 
 30.10        4.03322e+00        2.44599e-04        0.00000e+00 
 30.80        4.03117e+00        3.09964e-03        0.00000e+00 
 31.50        4.02909e+00        6.08217e-03        0.00000e+00 
 32.20        4.02700e+00        9.19158e-03        0.00000e+00 
 32.90        4.02489e+00        1.24273e-02        0.00000e+00 
 33.60        4.02275e+00        1.57886e-02        0.00000e+00 
 34.30        4.02060e+00        1.92749e-02        0.00000e+00 
 35.00        4.01842e+00        2.28856e-02        0.00000e+00 
 35.70        4.01622e+00        2.66201e-02        0.00000e+00 
 36.40        4.01399e+00        3.04776e-02        0.00000e+00 
 37.10        4.01174e+00        3.44575e-02        0.00000e+00 
 37.80        4.00946e+00        3.85592e-02        0.00000e+00 
 38.50        4.00715e+00        4.27819e-02        0.00000e+00 
 39.20        4.00482e+00        4.71249e-02        0.00000e+00 
 39.90        4.00246e+00        5.15876e-02        0.00000e+00 
 40.60        4.00007e+00        5.61692e-02        0.00000e+00 
 41.30        3.99765e+00        6.08689e-02        0.00000e+00 
 42.00        3.99519e+00        6.56861e-02        0.00000e+00 
 42.70        3.99271e+00        7.06200e-02        0.00000e+00 
 43.40        3.99019e+00        7.56697e-02        0.00000e+00 
 44.10        3.98764e+00        8.08345e-02        0.00000e+00 
 44.80        3.98505e+00        8.61137e-02        0.00000e+00 
 45.50        3.98243e+00        9.15063e-02        0.00000e+00 
 46.20        3.97977e+00        9.70116e-02        0.00000e+00 
 46.90        3.97707e+00        1.02629e-01        0.00000e+00 
 47.60        3.97433e+00        1.08357e-01        0.00000e+00 
 48.30        3.97156e+00        1.14195e-01        0.00000e+00 
 49.00        3.96874e+00        1.20142e-01        0.00000e+00 
 49.70        3.96589e+00        1.26198e-01        0.00000e+00 
 50.40        3.96299e+00        1.32361e-01        0.00000e+00 
 51.10        3.96005e+00        1.38631e-01        0.00000e+00 
 51.80        3.95706e+00        1.45006e-01        0.00000e+00 
 52.50        3.95403e+00        1.51485e-01        0.00000e+00 
 53.20        3.95096e+00        1.58068e-01        0.00000e+00 
 53.90        3.94784e+00        1.64754e-01        0.00000e+00 
 54.60        3.94467e+00        1.71542e-01        0.00000e+00 
 55.30        3.94145e+00        1.78429e-01        0.00000e+00 
 56.00        3.93819e+00        1.85417e-01        0.00000e+00 
 56.70        3.93487e+00        1.92503e-01        0.00000e+00 
 57.40        3.93151e+00        1.99686e-01        0.00000e+00 
 58.10        3.92809e+00        2.06966e-01        0.00000e+00 
 58.80        3.92462e+00        2.14341e-01        0.00000e+00 
 59.50        3.92110e+00        2.21810e-01        0.00000e+00 
 60.20        3.91753e+00        2.29372e-01        0.00000e+00 
 60.90        3.91390e+00        2.37026e-01        0.00000e+00 
 61.60        3.91022e+00        2.44770e-01        0.00000e+00 
 62.30        3.90648e+00        2.52604e-01        0.00000e+00 
 63.00        3.90268e+00        2.60527e-01        0.00000e+00 
 63.70        3.89883e+00        2.68536e-01        0.00000e+00 
 64.40        3.89492e+00        2.76632e-01        0.00000e+00 
 65.10        3.89095e+00        2.84812e-01        0.00000e+00 
 65.80        3.88692e+00        2.93076e-01        0.00000e+00 
 66.50        3.88283e+00        3.01422e-01        0.00000e+00 
 67.20        3.87868e+00        3.09849e-01        0.00000e+00 
 67.90        3.87446e+00        3.18355e-01        0.00000e+00 
 68.60        3.87019e+00        3.26941e-01        0.00000e+00 
 69.30        3.86585e+00        3.35603e-01        0.00000e+00 
 70.00        3.86145e+00        3.44341e-01        0.00000e+00 
 70.70        3.85699e+00        3.53153e-01        0.00000e+00 
 71.40        3.85246e+00        3.62039e-01        0.00000e+00 
 72.10        3.84787e+00        3.70996e-01        0.00000e+00 
 72.80        3.84321e+00        3.80024e-01        0.00000e+00 
 73.50        3.83849e+00        3.89121e-01        0.00000e+00 
 74.20        3.83369e+00        3.98285e-01        0.00000e+00 
 74.90        3.82884e+00        4.07516e-01        0.00000e+00 
 75.60        3.82391e+00        4.16812e-01        0.00000e+00 
 76.30        3.81892e+00        4.26172e-01        0.00000e+00 
 77.00        3.81385e+00        4.35593e-01        0.00000e+00 
 77.70        3.80872e+00        4.45075e-01        0.00000e+00 
 78.40        3.80352e+00        4.54617e-01        0.00000e+00 
 79.10        3.79825e+00        4.64216e-01        0.00000e+00 
 79.80        3.79291e+00        4.73872e-01        0.00000e+00 
 80.50        3.78750e+00        4.83582e-01        0.00000e+00 
 81.20        3.78201e+00        4.93347e-01        0.00000e+00 
 81.90        3.77646e+00        5.03163e-01        0.00000e+00 
 82.60        3.77083e+00        5.13030e-01        0.00000e+00 
 83.30        3.76514e+00        5.22946e-01        0.00000e+00 
 84.00        3.75937e+00        5.32909e-01        0.00000e+00 
 84.70        3.75352e+00        5.42919e-01        0.00000e+00 
 85.40        3.74761e+00        5.52973e-01        0.00000e+00 
 86.10        3.74162e+00        5.63071e-01        0.00000e+00 
 86.80        3.73556e+00        5.73211e-01        0.00000e+00 
 87.50        3.72943e+00        5.83390e-01        0.00000e+00 
 88.20        3.72322e+00        5.93609e-01        0.00000e+00 
 88.90        3.71694e+00        6.03865e-01        0.00000e+00 
 89.60        3.71058e+00        6.14156e-01        0.00000e+00 
 90.30        3.70415e+00        6.24482e-01        0.00000e+00 
 91.00        3.69765e+00        6.34841e-01        0.00000e+00 
 91.70        3.69108e+00        6.45231e-01        0.00000e+00 
 92.40        3.68442e+00        6.55651e-01        0.00000e+00 
 93.10        3.67770e+00        6.66100e-01        0.00000e+00 
 93.80        3.67090e+00        6.76575e-01        0.00000e+00 
 94.50        3.66403e+00        6.87076e-01        0.00000e+00 
 95.20        3.65708e+00        6.97600e-01        0.00000e+00 
 95.90        3.65006e+00        7.08147e-01        0.00000e+00 
 96.60        3.64296e+00        7.18715e-01        0.00000e+00 
 97.30        3.63579e+00        7.29303e-01        0.00000e+00 
 98.00        3.62855e+00        7.39909e-01        0.00000e+00 
 98.70        3.62123e+00        7.50531e-01        0.00000e+00 
 99.40        3.61384e+00        7.61169e-01        0.00000e+00 
 100.10        3.60638e+00        7.71820e-01        0.00000e+00 
 100.80        3.59884e+00        7.82484e-01        0.00000e+00 
 101.50        3.59123e+00        7.93158e-01        0.00000e+00 
 102.20        3.58355e+00        8.03842e-01        0.00000e+00 
 102.90        3.57579e+00        8.14534e-01        0.00000e+00 
 103.60        3.56796e+00        8.25233e-01        0.00000e+00 
 104.30        3.56006e+00        8.35936e-01        0.00000e+00 
 105.00        3.55209e+00        8.46644e-01        0.00000e+00 
 105.70        3.54404e+00        8.57354e-01        0.00000e+00 
 106.40        3.53592e+00        8.68065e-01        0.00000e+00 
 107.10        3.52774e+00        8.78776e-01        0.00000e+00 
 107.80        3.51948e+00        8.89485e-01        0.00000e+00 
 108.50        3.51115e+00        9.00191e-01        0.00000e+00 
 109.20        3.50275e+00        9.10893e-01        0.00000e+00 
 109.90        3.49428e+00        9.21589e-01        0.00000e+00 
 110.60        3.48574e+00        9.32278e-01        0.00000e+00 
 111.30        3.47713e+00        9.42959e-01        0.00000e+00 
 112.00        3.46846e+00        9.53630e-01        0.00000e+00 
 112.70        3.45971e+00        9.64291e-01        0.00000e+00 
 113.40        3.45090e+00        9.74939e-01        0.00000e+00 
 114.10        3.44202e+00        9.85574e-01        0.00000e+00 
 114.80        3.43307e+00        9.96195e-01        0.00000e+00 
 115.50        3.42406e+00        1.00680e+00        0.00000e+00 
 116.20        3.41498e+00        1.01739e+00        0.00000e+00 
 116.90        3.40584e+00        1.02796e+00        0.00000e+00 
 117.60        3.39663e+00        1.03851e+00        0.00000e+00 
 118.30        3.38736e+00        1.04903e+00        0.00000e+00 
 119.00        3.37802e+00        1.05954e+00        0.00000e+00 
 119.70        3.36862e+00        1.07003e+00        0.00000e+00 
 120.40        3.35916e+00        1.08049e+00        0.00000e+00 
 121.10        3.34963e+00        1.09092e+00        0.00000e+00 
 121.80        3.34005e+00        1.10133e+00        0.00000e+00 
 122.50        3.33040e+00        1.11171e+00        0.00000e+00 
 123.20        3.32069e+00        1.12207e+00        0.00000e+00 
 123.90        3.31092e+00        1.13239e+00        0.00000e+00 
 124.60        3.30110e+00        1.14268e+00        0.00000e+00 
 125.30        3.29121e+00        1.15294e+00        0.00000e+00 
 126.00        3.28127e+00        1.16317e+00        0.00000e+00 
 126.70        3.27127e+00        1.17337e+00        0.00000e+00 
 127.40        3.26122e+00        1.18353e+00        0.00000e+00 
 128.10        3.25111e+00        1.19365e+00        0.00000e+00 
 128.80        3.24094e+00        1.20374e+00        0.00000e+00 
 129.50        3.23072e+00        1.21379e+00        0.00000e+00 
 130.20        3.22044e+00        1.22381e+00        0.00000e+00 
 130.90        3.21012e+00        1.23378e+00        0.00000e+00 
 131.60        3.19973e+00        1.24372e+00        0.00000e+00 
 132.30        3.18930e+00        1.25361e+00        0.00000e+00 
 133.00        3.17882e+00        1.26346e+00        0.00000e+00 
 133.70        3.16829e+00        1.27327e+00        0.00000e+00 
 134.40        3.15770e+00        1.28303e+00        0.00000e+00 
 135.10        3.14707e+00        1.29275e+00        0.00000e+00 
 135.80        3.13639e+00        1.30243e+00        0.00000e+00 
 136.50        3.12567e+00        1.31206e+00        0.00000e+00 
 137.20        3.11489e+00        1.32164e+00        0.00000e+00 
 137.90        3.10408e+00        1.33118e+00        0.00000e+00 
 138.60        3.09321e+00        1.34066e+00        0.00000e+00 
 139.30        3.08230e+00        1.35010e+00        0.00000e+00 
 140.00        3.07135e+00        1.35949e+00        0.00000e+00 
 140.70        3.06036e+00        1.36883e+00        0.00000e+00 
 141.40        3.04932e+00        1.37812e+00        0.00000e+00 
 142.10        3.03824e+00        1.38735e+00        0.00000e+00 
 142.80        3.02713e+00        1.39654e+00        0.00000e+00 
 143.50        3.01597e+00        1.40567e+00        0.00000e+00 
 144.20        3.00477e+00        1.41475e+00        0.00000e+00 
 144.90        2.99354e+00        1.42377e+00        0.00000e+00 
 145.60        2.98226e+00        1.43274e+00        0.00000e+00 
 146.30        2.97096e+00        1.44166e+00        0.00000e+00 
 147.00        2.95961e+00        1.45052e+00        0.00000e+00 
 147.70        2.94823e+00        1.45932e+00        0.00000e+00 
 148.40        2.93682e+00        1.46807e+00        0.00000e+00 
 149.10        2.92537e+00        1.47676e+00        0.00000e+00 
 149.80        2.91389e+00        1.48539e+00        0.00000e+00 
 150.50        2.90238e+00        1.49397e+00        0.00000e+00 
 151.20        2.89083e+00        1.50249e+00        0.00000e+00 
 151.90        2.87926e+00        1.51094e+00        0.00000e+00 
 152.60        2.86766e+00        1.51934e+00        0.00000e+00 
 153.30        2.85602e+00        1.52768e+00        0.00000e+00 
 154.00        2.84436e+00        1.53596e+00        0.00000e+00 
 154.70        2.83268e+00        1.54418e+00        0.00000e+00 
 155.40        2.82096e+00        1.55234e+00        0.00000e+00 
 156.10        2.80922e+00        1.56043e+00        0.00000e+00 
 156.80        2.79746e+00        1.56847e+00        0.00000e+00 
 157.50        2.78567e+00        1.57644e+00        0.00000e+00 
 158.20        2.77385e+00        1.58435e+00        0.00000e+00 
 158.90        2.76202e+00        1.59220e+00        0.00000e+00 
 159.60        2.75016e+00        1.59999e+00        0.00000e+00 
 160.30        2.73828e+00        1.60772e+00        0.00000e+00 
 161.00        2.72638e+00        1.61538e+00        0.00000e+00 
 161.70        2.71446e+00        1.62297e+00        0.00000e+00 
 162.40        2.70252e+00        1.63051e+00        0.00000e+00 
 163.10        2.69057e+00        1.63798e+00        0.00000e+00 
 163.80        2.67859e+00        1.64539e+00        0.00000e+00 
 164.50        2.66660e+00        1.65273e+00        0.00000e+00 
 165.20        2.65460e+00        1.66001e+00        0.00000e+00 
 165.90        2.64257e+00        1.66722e+00        0.00000e+00 
 166.60        2.63054e+00        1.67437e+00        0.00000e+00 
 167.30        2.61849e+00        1.68146e+00        0.00000e+00 
 168.00        2.60642e+00        1.68848e+00        0.00000e+00 
 168.70        2.59434e+00        1.69543e+00        0.00000e+00 
 169.40        2.58225e+00        1.70232e+00        0.00000e+00 
 170.10        2.57015e+00        1.70915e+00        0.00000e+00 
 170.80        2.55804e+00        1.71591e+00        0.00000e+00 
 171.50        2.54592e+00        1.72260e+00        0.00000e+00 
 172.20        2.53379e+00        1.72923e+00        0.00000e+00 
 172.90        2.52166e+00        1.73580e+00        0.00000e+00 
 173.60        2.50951e+00        1.74230e+00        0.00000e+00 
 174.30        2.49736e+00        1.74873e+00        0.00000e+00 
 175.00        2.48520e+00        1.75510e+00        0.00000e+00 
 175.70        2.47303e+00        1.76140e+00        0.00000e+00 
 176.40        2.46086e+00        1.76764e+00        0.00000e+00 
 177.10        2.44869e+00        1.77381e+00        0.00000e+00 
 177.80        2.43651e+00        1.77992e+00        0.00000e+00 
 178.50        2.42433e+00        1.78596e+00        0.00000e+00 
 179.20        2.41214e+00        1.79193e+00        0.00000e+00 
 179.90        2.39995e+00        1.79784e+00        0.00000e+00 
 180.60        2.38777e+00        1.80369e+00        0.00000e+00 
 181.30        2.37558e+00        1.80947e+00        0.00000e+00 
 182.00        2.36339e+00        1.81518e+00        0.00000e+00 
 182.70        2.35120e+00        1.82084e+00        0.00000e+00 
 183.40        2.33901e+00        1.82642e+00        0.00000e+00 
 184.10        2.32682e+00        1.83194e+00        0.00000e+00 
 184.80        2.31464e+00        1.83740e+00        0.00000e+00 
 185.50        2.30246e+00        1.84279e+00        0.00000e+00 
 186.20        2.29028e+00        1.84812e+00        0.00000e+00 
 186.90        2.27810e+00        1.85338e+00        0.00000e+00 
 187.60        2.26593e+00        1.85858e+00        0.00000e+00 
 188.30        2.25377e+00        1.86371e+00        0.00000e+00 
 189.00        2.24161e+00        1.86878e+00        0.00000e+00 
 189.70        2.22945e+00        1.87379e+00        0.00000e+00 
 190.40        2.21730e+00        1.87873e+00        0.00000e+00 
 191.10        2.20516e+00        1.88361e+00        0.00000e+00 
 191.80        2.19303e+00        1.88843e+00        0.00000e+00 
 192.50        2.18090e+00        1.89318e+00        0.00000e+00 
 193.20        2.16879e+00        1.89787e+00        0.00000e+00 
 193.90        2.15668e+00        1.90250e+00        0.00000e+00 
 194.60        2.14458e+00        1.90707e+00        0.00000e+00 
 195.30        2.13249e+00        1.91157e+00        0.00000e+00 
 196.00        2.12041e+00        1.91601e+00        0.00000e+00 
 196.70        2.10834e+00        1.92039e+00        0.00000e+00 
 197.40        2.09629e+00        1.92471e+00        0.00000e+00 
 198.10        2.08424e+00        1.92896e+00        0.00000e+00 
 198.80        2.07221e+00        1.93316e+00        0.00000e+00 
 199.50        2.06019e+00        1.93729e+00        0.00000e+00 
 200.20        2.04819e+00        1.94136e+00        0.00000e+00 
 200.90        2.03619e+00        1.94538e+00        0.00000e+00 
 201.60        2.02421e+00        1.94933e+00        0.00000e+00 
 202.30        2.01225e+00        1.95322e+00        0.00000e+00 
 203.00        2.00030e+00        1.95705e+00        0.00000e+00 
 203.70        1.98836e+00        1.96083e+00        0.00000e+00 
 204.40        1.97644e+00        1.96454e+00        0.00000e+00 
 205.10        1.96454e+00        1.96820e+00        0.00000e+00 
 205.80        1.95265e+00        1.97179e+00        0.00000e+00 
 206.50        1.94078e+00        1.97533e+00        0.00000e+00 
 207.20        1.92893e+00        1.97881e+00        0.00000e+00 
 207.90        1.91710e+00        1.98223e+00        0.00000e+00 
 208.60        1.90528e+00        1.98560e+00        0.00000e+00 
 209.30        1.89348e+00        1.98890e+00        0.00000e+00 
 210.00        1.88170e+00        1.99215e+00        0.00000e+00 
 210.70        1.86993e+00        1.99534e+00        0.00000e+00 
 211.40        1.85819e+00        1.99848e+00        0.00000e+00 
