#Navio B MarAd
#Manobra de Curva Giro
#
#Velocidade Sistema Solidário 
#
#temp           u           v           w    dot roll   dot pitch     dot yaw 
 0.00        4.11000e+00        0.00000e+00        0.00000e+00        0.00000e+00        0.00000e+00        0.00000e+00 
 0.70        4.11000e+00        8.64984e-05        0.00000e+00        0.00000e+00        0.00000e+00        -1.86400e-06 
 1.40        4.11000e+00        1.74827e-04        0.00000e+00        0.00000e+00        0.00000e+00        -3.71374e-06 
 2.10        4.10816e+00        -2.81821e-03        0.00000e+00        0.00000e+00        0.00000e+00        7.82002e-05 
 2.80        4.10632e+00        -5.89175e-03        0.00000e+00        0.00000e+00        0.00000e+00        1.59367e-04 
 3.50        4.10448e+00        -9.04423e-03        0.00000e+00        0.00000e+00        0.00000e+00        2.39798e-04 
 4.20        4.10265e+00        -1.22741e-02        0.00000e+00        0.00000e+00        0.00000e+00        3.19506e-04 
 4.90        4.10081e+00        -1.55798e-02        0.00000e+00        0.00000e+00        0.00000e+00        3.98501e-04 
 5.60        4.09897e+00        -1.89599e-02        0.00000e+00        0.00000e+00        0.00000e+00        4.76795e-04 
 6.30        4.09714e+00        -2.24127e-02        0.00000e+00        0.00000e+00        0.00000e+00        5.54398e-04 
 7.00        4.09530e+00        -2.59369e-02        0.00000e+00        0.00000e+00        0.00000e+00        6.31320e-04 
 7.70        4.09346e+00        -2.95309e-02        0.00000e+00        0.00000e+00        0.00000e+00        7.07571e-04 
 8.40        4.09161e+00        -3.31933e-02        0.00000e+00        0.00000e+00        0.00000e+00        7.83160e-04 
 9.10        4.08977e+00        -3.69226e-02        0.00000e+00        0.00000e+00        0.00000e+00        8.58098e-04 
 9.80        4.08792e+00        -4.07174e-02        0.00000e+00        0.00000e+00        0.00000e+00        9.32392e-04 
 10.50        4.08606e+00        -4.45763e-02        0.00000e+00        0.00000e+00        0.00000e+00        1.00605e-03 
 11.20        4.08420e+00        -4.84978e-02        0.00000e+00        0.00000e+00        0.00000e+00        1.07909e-03 
 11.90        4.08233e+00        -5.24805e-02        0.00000e+00        0.00000e+00        0.00000e+00        1.15150e-03 
 12.60        4.08046e+00        -5.65230e-02        0.00000e+00        0.00000e+00        0.00000e+00        1.22331e-03 
 13.30        4.07858e+00        -6.06241e-02        0.00000e+00        0.00000e+00        0.00000e+00        1.29451e-03 
 14.00        4.07669e+00        -6.47822e-02        0.00000e+00        0.00000e+00        0.00000e+00        1.36512e-03 
 14.70        4.07479e+00        -6.89960e-02        0.00000e+00        0.00000e+00        0.00000e+00        1.43514e-03 
 15.40        4.07288e+00        -7.32642e-02        0.00000e+00        0.00000e+00        0.00000e+00        1.50458e-03 
 16.10        4.07097e+00        -7.75855e-02        0.00000e+00        0.00000e+00        0.00000e+00        1.57345e-03 
 16.80        4.06904e+00        -8.19585e-02        0.00000e+00        0.00000e+00        0.00000e+00        1.64174e-03 
 17.50        4.06710e+00        -8.63818e-02        0.00000e+00        0.00000e+00        0.00000e+00        1.70948e-03 
 18.20        4.06515e+00        -9.08543e-02        0.00000e+00        0.00000e+00        0.00000e+00        1.77666e-03 
 18.90        4.06319e+00        -9.53745e-02        0.00000e+00        0.00000e+00        0.00000e+00        1.84328e-03 
 19.60        4.06121e+00        -9.99413e-02        0.00000e+00        0.00000e+00        0.00000e+00        1.90937e-03 
 20.30        4.05922e+00        -1.04553e-01        0.00000e+00        0.00000e+00        0.00000e+00        1.97491e-03 
 21.00        4.05721e+00        -1.09209e-01        0.00000e+00        0.00000e+00        0.00000e+00        2.03992e-03 
 21.70        4.05519e+00        -1.13908e-01        0.00000e+00        0.00000e+00        0.00000e+00        2.10440e-03 
 22.40        4.05316e+00        -1.18648e-01        0.00000e+00        0.00000e+00        0.00000e+00        2.16835e-03 
 23.10        4.05110e+00        -1.23428e-01        0.00000e+00        0.00000e+00        0.00000e+00        2.23178e-03 
 23.80        4.04903e+00        -1.28247e-01        0.00000e+00        0.00000e+00        0.00000e+00        2.29470e-03 
 24.50        4.04694e+00        -1.33104e-01        0.00000e+00        0.00000e+00        0.00000e+00        2.35710e-03 
 25.20        4.04483e+00        -1.37998e-01        0.00000e+00        0.00000e+00        0.00000e+00        2.41900e-03 
 25.90        4.04271e+00        -1.42927e-01        0.00000e+00        0.00000e+00        0.00000e+00        2.48039e-03 
 26.60        4.04056e+00        -1.47889e-01        0.00000e+00        0.00000e+00        0.00000e+00        2.54128e-03 
 27.30        4.03839e+00        -1.52885e-01        0.00000e+00        0.00000e+00        0.00000e+00        2.60168e-03 
 28.00        4.03620e+00        -1.57913e-01        0.00000e+00        0.00000e+00        0.00000e+00        2.66158e-03 
 28.70        4.03399e+00        -1.62971e-01        0.00000e+00        0.00000e+00        0.00000e+00        2.72099e-03 
 29.40        4.03176e+00        -1.68058e-01        0.00000e+00        0.00000e+00        0.00000e+00        2.77991e-03 
 30.10        4.02950e+00        -1.73174e-01        0.00000e+00        0.00000e+00        0.00000e+00        2.83835e-03 
 30.80        4.02722e+00        -1.78317e-01        0.00000e+00        0.00000e+00        0.00000e+00        2.89631e-03 
 31.50        4.02492e+00        -1.83486e-01        0.00000e+00        0.00000e+00        0.00000e+00        2.95379e-03 
 32.20        4.02259e+00        -1.88680e-01        0.00000e+00        0.00000e+00        0.00000e+00        3.01079e-03 
 32.90        4.02023e+00        -1.93897e-01        0.00000e+00        0.00000e+00        0.00000e+00        3.06732e-03 
 33.60        4.01785e+00        -1.99137e-01        0.00000e+00        0.00000e+00        0.00000e+00        3.12338e-03 
 34.30        4.01544e+00        -2.04398e-01        0.00000e+00        0.00000e+00        0.00000e+00        3.17897e-03 
 35.00        4.01301e+00        -2.09680e-01        0.00000e+00        0.00000e+00        0.00000e+00        3.23409e-03 
 35.70        4.01055e+00        -2.14981e-01        0.00000e+00        0.00000e+00        0.00000e+00        3.28875e-03 
 36.40        4.00806e+00        -2.20300e-01        0.00000e+00        0.00000e+00        0.00000e+00        3.34294e-03 
 37.10        4.00554e+00        -2.25637e-01        0.00000e+00        0.00000e+00        0.00000e+00        3.39668e-03 
 37.80        4.00299e+00        -2.30989e-01        0.00000e+00        0.00000e+00        0.00000e+00        3.44995e-03 
 38.50        4.00041e+00        -2.36357e-01        0.00000e+00        0.00000e+00        0.00000e+00        3.50277e-03 
 39.20        3.99780e+00        -2.41738e-01        0.00000e+00        0.00000e+00        0.00000e+00        3.55513e-03 
 39.90        3.99516e+00        -2.47133e-01        0.00000e+00        0.00000e+00        0.00000e+00        3.60704e-03 
 40.60        3.99248e+00        -2.52539e-01        0.00000e+00        0.00000e+00        0.00000e+00        3.65850e-03 
 41.30        3.98978e+00        -2.57956e-01        0.00000e+00        0.00000e+00        0.00000e+00        3.70950e-03 
 42.00        3.98704e+00        -2.63384e-01        0.00000e+00        0.00000e+00        0.00000e+00        3.76006e-03 
 42.70        3.98428e+00        -2.68820e-01        0.00000e+00        0.00000e+00        0.00000e+00        3.81017e-03 
 43.40        3.98147e+00        -2.74263e-01        0.00000e+00        0.00000e+00        0.00000e+00        3.85983e-03 
 44.10        3.97864e+00        -2.79714e-01        0.00000e+00        0.00000e+00        0.00000e+00        3.90904e-03 
 44.80        3.97577e+00        -2.85171e-01        0.00000e+00        0.00000e+00        0.00000e+00        3.95781e-03 
 45.50        3.97286e+00        -2.90633e-01        0.00000e+00        0.00000e+00        0.00000e+00        4.00614e-03 
 46.20        3.96992e+00        -2.96099e-01        0.00000e+00        0.00000e+00        0.00000e+00        4.05403e-03 
 46.90        3.96695e+00        -3.01567e-01        0.00000e+00        0.00000e+00        0.00000e+00        4.10147e-03 
 47.60        3.96394e+00        -3.07038e-01        0.00000e+00        0.00000e+00        0.00000e+00        4.14847e-03 
 48.30        3.96089e+00        -3.12511e-01        0.00000e+00        0.00000e+00        0.00000e+00        4.19504e-03 
 49.00        3.95781e+00        -3.17983e-01        0.00000e+00        0.00000e+00        0.00000e+00        4.24116e-03 
 49.70        3.95469e+00        -3.23455e-01        0.00000e+00        0.00000e+00        0.00000e+00        4.28685e-03 
 50.40        3.95153e+00        -3.28925e-01        0.00000e+00        0.00000e+00        0.00000e+00        4.33210e-03 
 51.10        3.94834e+00        -3.34393e-01        0.00000e+00        0.00000e+00        0.00000e+00        4.37692e-03 
 51.80        3.94511e+00        -3.39858e-01        0.00000e+00        0.00000e+00        0.00000e+00        4.42130e-03 
 52.50        3.94184e+00        -3.45319e-01        0.00000e+00        0.00000e+00        0.00000e+00        4.46524e-03 
 53.20        3.93853e+00        -3.50774e-01        0.00000e+00        0.00000e+00        0.00000e+00        4.50875e-03 
 53.90        3.93518e+00        -3.56224e-01        0.00000e+00        0.00000e+00        0.00000e+00        4.55183e-03 
 54.60        3.93180e+00        -3.61668e-01        0.00000e+00        0.00000e+00        0.00000e+00        4.59448e-03 
 55.30        3.92837e+00        -3.67103e-01        0.00000e+00        0.00000e+00        0.00000e+00        4.63670e-03 
 56.00        3.92491e+00        -3.72531e-01        0.00000e+00        0.00000e+00        0.00000e+00        4.67848e-03 
 56.70        3.92141e+00        -3.77949e-01        0.00000e+00        0.00000e+00        0.00000e+00        4.71984e-03 
 57.40        3.91787e+00        -3.83357e-01        0.00000e+00        0.00000e+00        0.00000e+00        4.76077e-03 
 58.10        3.91428e+00        -3.88755e-01        0.00000e+00        0.00000e+00        0.00000e+00        4.80127e-03 
 58.80        3.91066e+00        -3.94141e-01        0.00000e+00        0.00000e+00        0.00000e+00        4.84134e-03 
 59.50        3.90700e+00        -3.99516e-01        0.00000e+00        0.00000e+00        0.00000e+00        4.88098e-03 
 60.20        3.90330e+00        -4.04877e-01        0.00000e+00        0.00000e+00        0.00000e+00        4.92020e-03 
 60.90        3.89955e+00        -4.10224e-01        0.00000e+00        0.00000e+00        0.00000e+00        4.95899e-03 
 61.60        3.89577e+00        -4.15557e-01        0.00000e+00        0.00000e+00        0.00000e+00        4.99736e-03 
 62.30        3.89195e+00        -4.20875e-01        0.00000e+00        0.00000e+00        0.00000e+00        5.03531e-03 
 63.00        3.88808e+00        -4.26178e-01        0.00000e+00        0.00000e+00        0.00000e+00        5.07283e-03 
 63.70        3.88417e+00        -4.31463e-01        0.00000e+00        0.00000e+00        0.00000e+00        5.10993e-03 
 64.40        3.88023e+00        -4.36732e-01        0.00000e+00        0.00000e+00        0.00000e+00        5.14661e-03 
 65.10        3.87624e+00        -4.41982e-01        0.00000e+00        0.00000e+00        0.00000e+00        5.18286e-03 
 65.80        3.87221e+00        -4.47215e-01        0.00000e+00        0.00000e+00        0.00000e+00        5.21870e-03 
 66.50        3.86814e+00        -4.52428e-01        0.00000e+00        0.00000e+00        0.00000e+00        5.25412e-03 
 67.20        3.86403e+00        -4.57621e-01        0.00000e+00        0.00000e+00        0.00000e+00        5.28912e-03 
 67.90        3.85988e+00        -4.62793e-01        0.00000e+00        0.00000e+00        0.00000e+00        5.32370e-03 
 68.60        3.85568e+00        -4.67945e-01        0.00000e+00        0.00000e+00        0.00000e+00        5.35787e-03 
 69.30        3.85145e+00        -4.73075e-01        0.00000e+00        0.00000e+00        0.00000e+00        5.39162e-03 
 70.00        3.84717e+00        -4.78183e-01        0.00000e+00        0.00000e+00        0.00000e+00        5.42495e-03 
 70.70        3.84286e+00        -4.83268e-01        0.00000e+00        0.00000e+00        0.00000e+00        5.45787e-03 
 71.40        3.83850e+00        -4.88330e-01        0.00000e+00        0.00000e+00        0.00000e+00        5.49038e-03 
 72.10        3.83410e+00        -4.93368e-01        0.00000e+00        0.00000e+00        0.00000e+00        5.52248e-03 
 72.80        3.82966e+00        -4.98381e-01        0.00000e+00        0.00000e+00        0.00000e+00        5.55417e-03 
 73.50        3.82518e+00        -5.03370e-01        0.00000e+00        0.00000e+00        0.00000e+00        5.58544e-03 
 74.20        3.82066e+00        -5.08332e-01        0.00000e+00        0.00000e+00        0.00000e+00        5.61631e-03 
 74.90        3.81610e+00        -5.13269e-01        0.00000e+00        0.00000e+00        0.00000e+00        5.64678e-03 
 75.60        3.81150e+00        -5.18180e-01        0.00000e+00        0.00000e+00        0.00000e+00        5.67683e-03 
 76.30        3.80685e+00        -5.23063e-01        0.00000e+00        0.00000e+00        0.00000e+00        5.70648e-03 
 77.00        3.80217e+00        -5.27919e-01        0.00000e+00        0.00000e+00        0.00000e+00        5.73573e-03 
 77.70        3.79745e+00        -5.32747e-01        0.00000e+00        0.00000e+00        0.00000e+00        5.76457e-03 
 78.40        3.79269e+00        -5.37547e-01        0.00000e+00        0.00000e+00        0.00000e+00        5.79301e-03 
 79.10        3.78789e+00        -5.42318e-01        0.00000e+00        0.00000e+00        0.00000e+00        5.82105e-03 
 79.80        3.78304e+00        -5.47059e-01        0.00000e+00        0.00000e+00        0.00000e+00        5.84870e-03 
 80.50        3.77816e+00        -5.51771e-01        0.00000e+00        0.00000e+00        0.00000e+00        5.87594e-03 
 81.20        3.77324e+00        -5.56453e-01        0.00000e+00        0.00000e+00        0.00000e+00        5.90279e-03 
 81.90        3.76829e+00        -5.61105e-01        0.00000e+00        0.00000e+00        0.00000e+00        5.92925e-03 
 82.60        3.76329e+00        -5.65725e-01        0.00000e+00        0.00000e+00        0.00000e+00        5.95531e-03 
 83.30        3.75825e+00        -5.70315e-01        0.00000e+00        0.00000e+00        0.00000e+00        5.98098e-03 
 84.00        3.75318e+00        -5.74873e-01        0.00000e+00        0.00000e+00        0.00000e+00        6.00626e-03 
 84.70        3.74807e+00        -5.79399e-01        0.00000e+00        0.00000e+00        0.00000e+00        6.03115e-03 
 85.40        3.74292e+00        -5.83893e-01        0.00000e+00        0.00000e+00        0.00000e+00        6.05566e-03 
 86.10        3.73773e+00        -5.88354e-01        0.00000e+00        0.00000e+00        0.00000e+00        6.07977e-03 
 86.80        3.73250e+00        -5.92783e-01        0.00000e+00        0.00000e+00        0.00000e+00        6.10351e-03 
 87.50        3.72724e+00        -5.97178e-01        0.00000e+00        0.00000e+00        0.00000e+00        6.12686e-03 
 88.20        3.72195e+00        -6.01540e-01        0.00000e+00        0.00000e+00        0.00000e+00        6.14983e-03 
 88.90        3.71661e+00        -6.05868e-01        0.00000e+00        0.00000e+00        0.00000e+00        6.17243e-03 
 89.60        3.71124e+00        -6.10163e-01        0.00000e+00        0.00000e+00        0.00000e+00        6.19464e-03 
 90.30        3.70584e+00        -6.14422e-01        0.00000e+00        0.00000e+00        0.00000e+00        6.21648e-03 
 91.00        3.70040e+00        -6.18648e-01        0.00000e+00        0.00000e+00        0.00000e+00        6.23795e-03 
 91.70        3.69492e+00        -6.22839e-01        0.00000e+00        0.00000e+00        0.00000e+00        6.25905e-03 
 92.40        3.68941e+00        -6.26994e-01        0.00000e+00        0.00000e+00        0.00000e+00        6.27977e-03 
 93.10        3.68386e+00        -6.31115e-01        0.00000e+00        0.00000e+00        0.00000e+00        6.30013e-03 
 93.80        3.67829e+00        -6.35200e-01        0.00000e+00        0.00000e+00        0.00000e+00        6.32012e-03 
 94.50        3.67267e+00        -6.39250e-01        0.00000e+00        0.00000e+00        0.00000e+00        6.33975e-03 
 95.20        3.66703e+00        -6.43264e-01        0.00000e+00        0.00000e+00        0.00000e+00        6.35902e-03 
 95.90        3.66135e+00        -6.47242e-01        0.00000e+00        0.00000e+00        0.00000e+00        6.37792e-03 
 96.60        3.65564e+00        -6.51184e-01        0.00000e+00        0.00000e+00        0.00000e+00        6.39647e-03 
 97.30        3.64990e+00        -6.55089e-01        0.00000e+00        0.00000e+00        0.00000e+00        6.41467e-03 
 98.00        3.64412e+00        -6.58959e-01        0.00000e+00        0.00000e+00        0.00000e+00        6.43251e-03 
 98.70        3.63832e+00        -6.62791e-01        0.00000e+00        0.00000e+00        0.00000e+00        6.44999e-03 
 99.40        3.63248e+00        -6.66587e-01        0.00000e+00        0.00000e+00        0.00000e+00        6.46713e-03 
 100.10        3.62661e+00        -6.70346e-01        0.00000e+00        0.00000e+00        0.00000e+00        6.48392e-03 
 100.80        3.62071e+00        -6.74069e-01        0.00000e+00        0.00000e+00        0.00000e+00        6.50037e-03 
 101.50        3.61479e+00        -6.77754e-01        0.00000e+00        0.00000e+00        0.00000e+00        6.51647e-03 
 102.20        3.60883e+00        -6.81402e-01        0.00000e+00        0.00000e+00        0.00000e+00        6.53223e-03 
 102.90        3.60285e+00        -6.85013e-01        0.00000e+00        0.00000e+00        0.00000e+00        6.54766e-03 
 103.60        3.59683e+00        -6.88587e-01        0.00000e+00        0.00000e+00        0.00000e+00        6.56274e-03 
 104.30        3.59079e+00        -6.92124e-01        0.00000e+00        0.00000e+00        0.00000e+00        6.57750e-03 
 105.00        3.58472e+00        -6.95623e-01        0.00000e+00        0.00000e+00        0.00000e+00        6.59192e-03 
 105.70        3.57863e+00        -6.99085e-01        0.00000e+00        0.00000e+00        0.00000e+00        6.60602e-03 
 106.40        3.57250e+00        -7.02509e-01        0.00000e+00        0.00000e+00        0.00000e+00        6.61978e-03 
 107.10        3.56635e+00        -7.05896e-01        0.00000e+00        0.00000e+00        0.00000e+00        6.63323e-03 
 107.80        3.56018e+00        -7.09245e-01        0.00000e+00        0.00000e+00        0.00000e+00        6.64635e-03 
 108.50        3.55398e+00        -7.12557e-01        0.00000e+00        0.00000e+00        0.00000e+00        6.65915e-03 
 109.20        3.54775e+00        -7.15831e-01        0.00000e+00        0.00000e+00        0.00000e+00        6.67163e-03 
 109.90        3.54150e+00        -7.19068e-01        0.00000e+00        0.00000e+00        0.00000e+00        6.68380e-03 
 110.60        3.53523e+00        -7.22267e-01        0.00000e+00        0.00000e+00        0.00000e+00        6.69566e-03 
 111.30        3.52893e+00        -7.25429e-01        0.00000e+00        0.00000e+00        0.00000e+00        6.70721e-03 
 112.00        3.52261e+00        -7.28553e-01        0.00000e+00        0.00000e+00        0.00000e+00        6.71845e-03 
