#Navio B MarAd
#Manobra de Curva Giro
#
#Velocidade Inercial
#
#temp           u           v           r
 0.00        4.11000e+00        0.00000e+00        0.00000e+00 
 0.70        4.11000e+00        8.41259e-05        0.00000e+00 
 1.40        4.11000e+00        1.65366e-04        0.00000e+00 
 2.10        4.10816e+00        -2.69156e-03        0.00000e+00 
 2.80        4.10632e+00        -5.44980e-03        0.00000e+00 
 3.50        4.10448e+00        -8.11001e-03        0.00000e+00 
 4.20        4.10265e+00        -1.06728e-02        0.00000e+00 
 4.90        4.10082e+00        -1.31388e-02        0.00000e+00 
 5.60        4.09899e+00        -1.55085e-02        0.00000e+00 
 6.30        4.09716e+00        -1.77825e-02        0.00000e+00 
 7.00        4.09534e+00        -1.99614e-02        0.00000e+00 
 7.70        4.09352e+00        -2.20456e-02        0.00000e+00 
 8.40        4.09170e+00        -2.40357e-02        0.00000e+00 
 9.10        4.08988e+00        -2.59322e-02        0.00000e+00 
 9.80        4.08806e+00        -2.77355e-02        0.00000e+00 
 10.50        4.08624e+00        -2.94461e-02        0.00000e+00 
 11.20        4.08443e+00        -3.10645e-02        0.00000e+00 
 11.90        4.08261e+00        -3.25910e-02        0.00000e+00 
 12.60        4.08080e+00        -3.40260e-02        0.00000e+00 
 13.30        4.07898e+00        -3.53701e-02        0.00000e+00 
 14.00        4.07717e+00        -3.66235e-02        0.00000e+00 
 14.70        4.07536e+00        -3.77867e-02        0.00000e+00 
 15.40        4.07354e+00        -3.88600e-02        0.00000e+00 
 16.10        4.07173e+00        -3.98437e-02        0.00000e+00 
 16.80        4.06991e+00        -4.07383e-02        0.00000e+00 
 17.50        4.06810e+00        -4.15440e-02        0.00000e+00 
 18.20        4.06628e+00        -4.22612e-02        0.00000e+00 
 18.90        4.06446e+00        -4.28902e-02        0.00000e+00 
 19.60        4.06264e+00        -4.34313e-02        0.00000e+00 
 20.30        4.06081e+00        -4.38849e-02        0.00000e+00 
 21.00        4.05898e+00        -4.42511e-02        0.00000e+00 
 21.70        4.05715e+00        -4.45303e-02        0.00000e+00 
 22.40        4.05532e+00        -4.47229e-02        0.00000e+00 
 23.10        4.05348e+00        -4.48289e-02        0.00000e+00 
 23.80        4.05164e+00        -4.48489e-02        0.00000e+00 
 24.50        4.04980e+00        -4.47829e-02        0.00000e+00 
 25.20        4.04795e+00        -4.46313e-02        0.00000e+00 
 25.90        4.04609e+00        -4.43943e-02        0.00000e+00 
 26.60        4.04423e+00        -4.40723e-02        0.00000e+00 
 27.30        4.04237e+00        -4.36654e-02        0.00000e+00 
 28.00        4.04049e+00        -4.31738e-02        0.00000e+00 
 28.70        4.03862e+00        -4.25980e-02        0.00000e+00 
 29.40        4.03673e+00        -4.19380e-02        0.00000e+00 
 30.10        4.03484e+00        -4.11942e-02        0.00000e+00 
 30.80        4.03294e+00        -4.03668e-02        0.00000e+00 
 31.50        4.03103e+00        -3.94560e-02        0.00000e+00 
 32.20        4.02911e+00        -3.84621e-02        0.00000e+00 
 32.90        4.02718e+00        -3.73854e-02        0.00000e+00 
 33.60        4.02525e+00        -3.62261e-02        0.00000e+00 
 34.30        4.02330e+00        -3.49843e-02        0.00000e+00 
 35.00        4.02135e+00        -3.36605e-02        0.00000e+00 
 35.70        4.01938e+00        -3.22548e-02        0.00000e+00 
 36.40        4.01740e+00        -3.07675e-02        0.00000e+00 
 37.10        4.01542e+00        -2.91989e-02        0.00000e+00 
 37.80        4.01342e+00        -2.75491e-02        0.00000e+00 
 38.50        4.01140e+00        -2.58185e-02        0.00000e+00 
 39.20        4.00938e+00        -2.40074e-02        0.00000e+00 
 39.90        4.00734e+00        -2.21160e-02        0.00000e+00 
 40.60        4.00529e+00        -2.01445e-02        0.00000e+00 
 41.30        4.00322e+00        -1.80933e-02        0.00000e+00 
 42.00        4.00114e+00        -1.59626e-02        0.00000e+00 
 42.70        3.99905e+00        -1.37528e-02        0.00000e+00 
 43.40        3.99693e+00        -1.14640e-02        0.00000e+00 
 44.10        3.99481e+00        -9.09667e-03        0.00000e+00 
 44.80        3.99267e+00        -6.65104e-03        0.00000e+00 
 45.50        3.99051e+00        -4.12741e-03        0.00000e+00 
 46.20        3.98833e+00        -1.52610e-03        0.00000e+00 
 46.90        3.98614e+00        1.15256e-03        0.00000e+00 
 47.60        3.98392e+00        3.90827e-03        0.00000e+00 
 48.30        3.98169e+00        6.74068e-03        0.00000e+00 
 49.00        3.97944e+00        9.64946e-03        0.00000e+00 
 49.70        3.97717e+00        1.26343e-02        0.00000e+00 
 50.40        3.97489e+00        1.56948e-02        0.00000e+00 
 51.10        3.97258e+00        1.88306e-02        0.00000e+00 
 51.80        3.97025e+00        2.20413e-02        0.00000e+00 
 52.50        3.96790e+00        2.53267e-02        0.00000e+00 
 53.20        3.96552e+00        2.86863e-02        0.00000e+00 
 53.90        3.96313e+00        3.21196e-02        0.00000e+00 
 54.60        3.96071e+00        3.56265e-02        0.00000e+00 
 55.30        3.95827e+00        3.92063e-02        0.00000e+00 
 56.00        3.95581e+00        4.28588e-02        0.00000e+00 
 56.70        3.95332e+00        4.65835e-02        0.00000e+00 
 57.40        3.95081e+00        5.03800e-02        0.00000e+00 
 58.10        3.94828e+00        5.42478e-02        0.00000e+00 
 58.80        3.94572e+00        5.81865e-02        0.00000e+00 
 59.50        3.94313e+00        6.21957e-02        0.00000e+00 
 60.20        3.94052e+00        6.62749e-02        0.00000e+00 
 60.90        3.93788e+00        7.04237e-02        0.00000e+00 
 61.60        3.93522e+00        7.46415e-02        0.00000e+00 
 62.30        3.93252e+00        7.89279e-02        0.00000e+00 
 63.00        3.92980e+00        8.32825e-02        0.00000e+00 
 63.70        3.92705e+00        8.77046e-02        0.00000e+00 
 64.40        3.92428e+00        9.21938e-02        0.00000e+00 
 65.10        3.92147e+00        9.67497e-02        0.00000e+00 
 65.80        3.91864e+00        1.01372e-01        0.00000e+00 
 66.50        3.91577e+00        1.06059e-01        0.00000e+00 
 67.20        3.91288e+00        1.10811e-01        0.00000e+00 
 67.90        3.90996e+00        1.15628e-01        0.00000e+00 
 68.60        3.90700e+00        1.20509e-01        0.00000e+00 
 69.30        3.90402e+00        1.25453e-01        0.00000e+00 
 70.00        3.90100e+00        1.30460e-01        0.00000e+00 
 70.70        3.89795e+00        1.35529e-01        0.00000e+00 
 71.40        3.89487e+00        1.40660e-01        0.00000e+00 
 72.10        3.89175e+00        1.45852e-01        0.00000e+00 
 72.80        3.88860e+00        1.51104e-01        0.00000e+00 
 73.50        3.88542e+00        1.56416e-01        0.00000e+00 
 74.20        3.88221e+00        1.61787e-01        0.00000e+00 
 74.90        3.87896e+00        1.67217e-01        0.00000e+00 
 75.60        3.87568e+00        1.72705e-01        0.00000e+00 
 76.30        3.87236e+00        1.78250e-01        0.00000e+00 
 77.00        3.86901e+00        1.83851e-01        0.00000e+00 
 77.70        3.86562e+00        1.89509e-01        0.00000e+00 
 78.40        3.86220e+00        1.95222e-01        0.00000e+00 
 79.10        3.85874e+00        2.00990e-01        0.00000e+00 
 79.80        3.85525e+00        2.06812e-01        0.00000e+00 
 80.50        3.85172e+00        2.12687e-01        0.00000e+00 
 81.20        3.84815e+00        2.18615e-01        0.00000e+00 
 81.90        3.84455e+00        2.24595e-01        0.00000e+00 
 82.60        3.84090e+00        2.30626e-01        0.00000e+00 
 83.30        3.83723e+00        2.36708e-01        0.00000e+00 
 84.00        3.83351e+00        2.42839e-01        0.00000e+00 
 84.70        3.82975e+00        2.49020e-01        0.00000e+00 
 85.40        3.82596e+00        2.55249e-01        0.00000e+00 
 86.10        3.82213e+00        2.61526e-01        0.00000e+00 
 86.80        3.81826e+00        2.67850e-01        0.00000e+00 
 87.50        3.81435e+00        2.74220e-01        0.00000e+00 
 88.20        3.81040e+00        2.80636e-01        0.00000e+00 
 88.90        3.80642e+00        2.87097e-01        0.00000e+00 
 89.60        3.80239e+00        2.93601e-01        0.00000e+00 
 90.30        3.79833e+00        3.00149e-01        0.00000e+00 
 91.00        3.79422e+00        3.06740e-01        0.00000e+00 
 91.70        3.79007e+00        3.13372e-01        0.00000e+00 
 92.40        3.78589e+00        3.20045e-01        0.00000e+00 
 93.10        3.78166e+00        3.26759e-01        0.00000e+00 
 93.80        3.77740e+00        3.33512e-01        0.00000e+00 
 94.50        3.77309e+00        3.40304e-01        0.00000e+00 
 95.20        3.76874e+00        3.47134e-01        0.00000e+00 
 95.90        3.76436e+00        3.54001e-01        0.00000e+00 
 96.60        3.75993e+00        3.60905e-01        0.00000e+00 
 97.30        3.75546e+00        3.67844e-01        0.00000e+00 
 98.00        3.75095e+00        3.74818e-01        0.00000e+00 
 98.70        3.74640e+00        3.81826e-01        0.00000e+00 
 99.40        3.74180e+00        3.88868e-01        0.00000e+00 
 100.10        3.73717e+00        3.95942e-01        0.00000e+00 
 100.80        3.73249e+00        4.03047e-01        0.00000e+00 
 101.50        3.72778e+00        4.10184e-01        0.00000e+00 
 102.20        3.72302e+00        4.17351e-01        0.00000e+00 
 102.90        3.71822e+00        4.24548e-01        0.00000e+00 
 103.60        3.71338e+00        4.31773e-01        0.00000e+00 
 104.30        3.70850e+00        4.39025e-01        0.00000e+00 
 105.00        3.70357e+00        4.46305e-01        0.00000e+00 
 105.70        3.69861e+00        4.53611e-01        0.00000e+00 
 106.40        3.69360e+00        4.60943e-01        0.00000e+00 
 107.10        3.68855e+00        4.68299e-01        0.00000e+00 
 107.80        3.68346e+00        4.75679e-01        0.00000e+00 
 108.50        3.67833e+00        4.83083e-01        0.00000e+00 
 109.20        3.67316e+00        4.90508e-01        0.00000e+00 
 109.90        3.66794e+00        4.97955e-01        0.00000e+00 
 110.60        3.66269e+00        5.05423e-01        0.00000e+00 
 111.30        3.65739e+00        5.12911e-01        0.00000e+00 
 112.00        3.65205e+00        5.20419e-01        0.00000e+00 
 112.70        3.64667e+00        5.27944e-01        0.00000e+00 
 113.40        3.64125e+00        5.35488e-01        0.00000e+00 
 114.10        3.63579e+00        5.43048e-01        0.00000e+00 
 114.80        3.63029e+00        5.50624e-01        0.00000e+00 
 115.50        3.62475e+00        5.58216e-01        0.00000e+00 
 116.20        3.61916e+00        5.65823e-01        0.00000e+00 
 116.90        3.61354e+00        5.73443e-01        0.00000e+00 
 117.60        3.60787e+00        5.81077e-01        0.00000e+00 
 118.30        3.60217e+00        5.88722e-01        0.00000e+00 
 119.00        3.59643e+00        5.96380e-01        0.00000e+00 
 119.70        3.59064e+00        6.04048e-01        0.00000e+00 
 120.40        3.58482e+00        6.11727e-01        0.00000e+00 
 121.10        3.57895e+00        6.19415e-01        0.00000e+00 
 121.80        3.57305e+00        6.27112e-01        0.00000e+00 
 122.50        3.56711e+00        6.34816e-01        0.00000e+00 
 123.20        3.56112e+00        6.42528e-01        0.00000e+00 
 123.90        3.55510e+00        6.50247e-01        0.00000e+00 
 124.60        3.54904e+00        6.57971e-01        0.00000e+00 
 125.30        3.54295e+00        6.65701e-01        0.00000e+00 
 126.00        3.53681e+00        6.73435e-01        0.00000e+00 
 126.70        3.53063e+00        6.81172e-01        0.00000e+00 
 127.40        3.52442e+00        6.88913e-01        0.00000e+00 
 128.10        3.51817e+00        6.96656e-01        0.00000e+00 
 128.80        3.51188e+00        7.04401e-01        0.00000e+00 
 129.50        3.50556e+00        7.12147e-01        0.00000e+00 
 130.20        3.49919e+00        7.19893e-01        0.00000e+00 
 130.90        3.49279e+00        7.27638e-01        0.00000e+00 
 131.60        3.48636e+00        7.35383e-01        0.00000e+00 
 132.30        3.47989e+00        7.43126e-01        0.00000e+00 
 133.00        3.47338e+00        7.50867e-01        0.00000e+00 
 133.70        3.46683e+00        7.58605e-01        0.00000e+00 
 134.40        3.46025e+00        7.66340e-01        0.00000e+00 
 135.10        3.45364e+00        7.74070e-01        0.00000e+00 
 135.80        3.44699e+00        7.81795e-01        0.00000e+00 
 136.50        3.44030e+00        7.89515e-01        0.00000e+00 
 137.20        3.43358e+00        7.97229e-01        0.00000e+00 
 137.90        3.42683e+00        8.04937e-01        0.00000e+00 
 138.60        3.42004e+00        8.12637e-01        0.00000e+00 
 139.30        3.41322e+00        8.20329e-01        0.00000e+00 
 140.00        3.40637e+00        8.28013e-01        0.00000e+00 
 140.70        3.39948e+00        8.35688e-01        0.00000e+00 
 141.40        3.39256e+00        8.43354e-01        0.00000e+00 
 142.10        3.38561e+00        8.51010e-01        0.00000e+00 
 142.80        3.37862e+00        8.58654e-01        0.00000e+00 
 143.50        3.37161e+00        8.66288e-01        0.00000e+00 
 144.20        3.36456e+00        8.73910e-01        0.00000e+00 
 144.90        3.35748e+00        8.81520e-01        0.00000e+00 
 145.60        3.35037e+00        8.89117e-01        0.00000e+00 
 146.30        3.34323e+00        8.96701e-01        0.00000e+00 
 147.00        3.33606e+00        9.04271e-01        0.00000e+00 
 147.70        3.32886e+00        9.11827e-01        0.00000e+00 
 148.40        3.32163e+00        9.19367e-01        0.00000e+00 
 149.10        3.31437e+00        9.26893e-01        0.00000e+00 
 149.80        3.30708e+00        9.34403e-01        0.00000e+00 
 150.50        3.29976e+00        9.41897e-01        0.00000e+00 
 151.20        3.29242e+00        9.49373e-01        0.00000e+00 
 151.90        3.28505e+00        9.56833e-01        0.00000e+00 
 152.60        3.27765e+00        9.64275e-01        0.00000e+00 
 153.30        3.27022e+00        9.71699e-01        0.00000e+00 
 154.00        3.26277e+00        9.79105e-01        0.00000e+00 
 154.70        3.25529e+00        9.86492e-01        0.00000e+00 
 155.40        3.24778e+00        9.93859e-01        0.00000e+00 
 156.10        3.24025e+00        1.00121e+00        0.00000e+00 
 156.80        3.23269e+00        1.00853e+00        0.00000e+00 
 157.50        3.22511e+00        1.01584e+00        0.00000e+00 
 158.20        3.21750e+00        1.02313e+00        0.00000e+00 
 158.90        3.20987e+00        1.03039e+00        0.00000e+00 
 159.60        3.20221e+00        1.03763e+00        0.00000e+00 
 160.30        3.19453e+00        1.04485e+00        0.00000e+00 
 161.00        3.18683e+00        1.05205e+00        0.00000e+00 
 161.70        3.17910e+00        1.05923e+00        0.00000e+00 
 162.40        3.17136e+00        1.06638e+00        0.00000e+00 
 163.10        3.16359e+00        1.07351e+00        0.00000e+00 
 163.80        3.15579e+00        1.08061e+00        0.00000e+00 
 164.50        3.14798e+00        1.08769e+00        0.00000e+00 
 165.20        3.14015e+00        1.09475e+00        0.00000e+00 
 165.90        3.13229e+00        1.10178e+00        0.00000e+00 
 166.60        3.12442e+00        1.10879e+00        0.00000e+00 
 167.30        3.11652e+00        1.11577e+00        0.00000e+00 
 168.00        3.10860e+00        1.12272e+00        0.00000e+00 
 168.70        3.10067e+00        1.12965e+00        0.00000e+00 
 169.40        3.09272e+00        1.13655e+00        0.00000e+00 
 170.10        3.08474e+00        1.14343e+00        0.00000e+00 
 170.80        3.07675e+00        1.15028e+00        0.00000e+00 
 171.50        3.06874e+00        1.15710e+00        0.00000e+00 
 172.20        3.06072e+00        1.16389e+00        0.00000e+00 
 172.90        3.05267e+00        1.17066e+00        0.00000e+00 
 173.60        3.04461e+00        1.17740e+00        0.00000e+00 
 174.30        3.03654e+00        1.18411e+00        0.00000e+00 
 175.00        3.02844e+00        1.19079e+00        0.00000e+00 
 175.70        3.02033e+00        1.19744e+00        0.00000e+00 
 176.40        3.01221e+00        1.20407e+00        0.00000e+00 
 177.10        3.00407e+00        1.21066e+00        0.00000e+00 
 177.80        2.99592e+00        1.21723e+00        0.00000e+00 
 178.50        2.98775e+00        1.22377e+00        0.00000e+00 
 179.20        2.97957e+00        1.23027e+00        0.00000e+00 
 179.90        2.97137e+00        1.23675e+00        0.00000e+00 
 180.60        2.96316e+00        1.24320e+00        0.00000e+00 
 181.30        2.95494e+00        1.24962e+00        0.00000e+00 
 182.00        2.94670e+00        1.25600e+00        0.00000e+00 
 182.70        2.93846e+00        1.26236e+00        0.00000e+00 
 183.40        2.93020e+00        1.26868e+00        0.00000e+00 
 184.10        2.92192e+00        1.27498e+00        0.00000e+00 
 184.80        2.91364e+00        1.28124e+00        0.00000e+00 
 185.50        2.90535e+00        1.28747e+00        0.00000e+00 
 186.20        2.89704e+00        1.29368e+00        0.00000e+00 
 186.90        2.88873e+00        1.29984e+00        0.00000e+00 
 187.60        2.88040e+00        1.30598e+00        0.00000e+00 
 188.30        2.87207e+00        1.31209e+00        0.00000e+00 
 189.00        2.86373e+00        1.31816e+00        0.00000e+00 
 189.70        2.85537e+00        1.32421e+00        0.00000e+00 
 190.40        2.84701e+00        1.33022e+00        0.00000e+00 
 191.10        2.83864e+00        1.33620e+00        0.00000e+00 
 191.80        2.83026e+00        1.34214e+00        0.00000e+00 
 192.50        2.82188e+00        1.34806e+00        0.00000e+00 
 193.20        2.81348e+00        1.35394e+00        0.00000e+00 
 193.90        2.80508e+00        1.35979e+00        0.00000e+00 
 194.60        2.79667e+00        1.36560e+00        0.00000e+00 
 195.30        2.78826e+00        1.37139e+00        0.00000e+00 
 196.00        2.77984e+00        1.37714e+00        0.00000e+00 
 196.70        2.77141e+00        1.38286e+00        0.00000e+00 
 197.40        2.76298e+00        1.38854e+00        0.00000e+00 
 198.10        2.75454e+00        1.39420e+00        0.00000e+00 
 198.80        2.74610e+00        1.39982e+00        0.00000e+00 
 199.50        2.73765e+00        1.40540e+00        0.00000e+00 
 200.20        2.72920e+00        1.41096e+00        0.00000e+00 
 200.90        2.72074e+00        1.41648e+00        0.00000e+00 
 201.60        2.71228e+00        1.42196e+00        0.00000e+00 
 202.30        2.70382e+00        1.42742e+00        0.00000e+00 
 203.00        2.69535e+00        1.43284e+00        0.00000e+00 
 203.70        2.68688e+00        1.43823e+00        0.00000e+00 
 204.40        2.67841e+00        1.44358e+00        0.00000e+00 
 205.10        2.66993e+00        1.44890e+00        0.00000e+00 
 205.80        2.66145e+00        1.45419e+00        0.00000e+00 
 206.50        2.65297e+00        1.45944e+00        0.00000e+00 
 207.20        2.64449e+00        1.46467e+00        0.00000e+00 
 207.90        2.63601e+00        1.46985e+00        0.00000e+00 
 208.60        2.62752e+00        1.47501e+00        0.00000e+00 
 209.30        2.61904e+00        1.48013e+00        0.00000e+00 
 210.00        2.61055e+00        1.48522e+00        0.00000e+00 
 210.70        2.60206e+00        1.49027e+00        0.00000e+00 
