#Navio B MarAd
#Manobra de Curva Giro
#
#Velocidade Inercial
#
#temp           u           v           r
 0.00        4.11000e+00        0.00000e+00        0.00000e+00 
 0.70        4.11000e+00        8.37902e-05        0.00000e+00 
 1.40        4.11000e+00        1.64019e-04        0.00000e+00 
 2.10        4.10816e+00        -2.68298e-03        0.00000e+00 
 2.80        4.10632e+00        -5.40865e-03        0.00000e+00 
 3.50        4.10448e+00        -8.01346e-03        0.00000e+00 
 4.20        4.10265e+00        -1.04979e-02        0.00000e+00 
 4.90        4.10082e+00        -1.28623e-02        0.00000e+00 
 5.60        4.09899e+00        -1.51072e-02        0.00000e+00 
 6.30        4.09716e+00        -1.72330e-02        0.00000e+00 
 7.00        4.09534e+00        -1.92401e-02        0.00000e+00 
 7.70        4.09352e+00        -2.11288e-02        0.00000e+00 
 8.40        4.09170e+00        -2.28995e-02        0.00000e+00 
 9.10        4.08988e+00        -2.45526e-02        0.00000e+00 
 9.80        4.08806e+00        -2.60885e-02        0.00000e+00 
 10.50        4.08624e+00        -2.75074e-02        0.00000e+00 
 11.20        4.08442e+00        -2.88097e-02        0.00000e+00 
 11.90        4.08261e+00        -2.99957e-02        0.00000e+00 
 12.60        4.08079e+00        -3.10657e-02        0.00000e+00 
 13.30        4.07898e+00        -3.20200e-02        0.00000e+00 
 14.00        4.07716e+00        -3.28589e-02        0.00000e+00 
 14.70        4.07534e+00        -3.35826e-02        0.00000e+00 
 15.40        4.07353e+00        -3.41915e-02        0.00000e+00 
 16.10        4.07171e+00        -3.46858e-02        0.00000e+00 
 16.80        4.06989e+00        -3.50658e-02        0.00000e+00 
 17.50        4.06807e+00        -3.53316e-02        0.00000e+00 
 18.20        4.06624e+00        -3.54837e-02        0.00000e+00 
 18.90        4.06442e+00        -3.55222e-02        0.00000e+00 
 19.60        4.06259e+00        -3.54473e-02        0.00000e+00 
 20.30        4.06076e+00        -3.52593e-02        0.00000e+00 
 21.00        4.05892e+00        -3.49584e-02        0.00000e+00 
 21.70        4.05708e+00        -3.45449e-02        0.00000e+00 
 22.40        4.05523e+00        -3.40189e-02        0.00000e+00 
 23.10        4.05338e+00        -3.33808e-02        0.00000e+00 
 23.80        4.05153e+00        -3.26307e-02        0.00000e+00 
 24.50        4.04967e+00        -3.17689e-02        0.00000e+00 
 25.20        4.04780e+00        -3.07956e-02        0.00000e+00 
 25.90        4.04592e+00        -2.97110e-02        0.00000e+00 
 26.60        4.04404e+00        -2.85153e-02        0.00000e+00 
 27.30        4.04215e+00        -2.72088e-02        0.00000e+00 
 28.00        4.04025e+00        -2.57918e-02        0.00000e+00 
 28.70        4.03834e+00        -2.42643e-02        0.00000e+00 
 29.40        4.03643e+00        -2.26268e-02        0.00000e+00 
 30.10        4.03450e+00        -2.08794e-02        0.00000e+00 
 30.80        4.03256e+00        -1.90223e-02        0.00000e+00 
 31.50        4.03061e+00        -1.70559e-02        0.00000e+00 
 32.20        4.02865e+00        -1.49803e-02        0.00000e+00 
 32.90        4.02668e+00        -1.27958e-02        0.00000e+00 
 33.60        4.02469e+00        -1.05027e-02        0.00000e+00 
 34.30        4.02270e+00        -8.10133e-03        0.00000e+00 
 35.00        4.02068e+00        -5.59184e-03        0.00000e+00 
 35.70        4.01866e+00        -2.97456e-03        0.00000e+00 
 36.40        4.01661e+00        -2.49784e-04        0.00000e+00 
 37.10        4.01455e+00        2.58220e-03        0.00000e+00 
 37.80        4.01248e+00        5.52109e-03        0.00000e+00 
 38.50        4.01039e+00        8.56657e-03        0.00000e+00 
 39.20        4.00828e+00        1.17183e-02        0.00000e+00 
 39.90        4.00615e+00        1.49760e-02        0.00000e+00 
 40.60        4.00400e+00        1.83393e-02        0.00000e+00 
 41.30        4.00183e+00        2.18079e-02        0.00000e+00 
 42.00        3.99965e+00        2.53814e-02        0.00000e+00 
 42.70        3.99744e+00        2.90594e-02        0.00000e+00 
 43.40        3.99521e+00        3.28415e-02        0.00000e+00 
 44.10        3.99296e+00        3.67275e-02        0.00000e+00 
 44.80        3.99068e+00        4.07168e-02        0.00000e+00 
 45.50        3.98838e+00        4.48091e-02        0.00000e+00 
 46.20        3.98606e+00        4.90040e-02        0.00000e+00 
 46.90        3.98371e+00        5.33010e-02        0.00000e+00 
 47.60        3.98134e+00        5.76997e-02        0.00000e+00 
 48.30        3.97894e+00        6.21996e-02        0.00000e+00 
 49.00        3.97651e+00        6.68002e-02        0.00000e+00 
 49.70        3.97406e+00        7.15012e-02        0.00000e+00 
 50.40        3.97158e+00        7.63019e-02        0.00000e+00 
 51.10        3.96906e+00        8.12019e-02        0.00000e+00 
 51.80        3.96652e+00        8.62007e-02        0.00000e+00 
 52.50        3.96395e+00        9.12978e-02        0.00000e+00 
 53.20        3.96135e+00        9.64925e-02        0.00000e+00 
 53.90        3.95871e+00        1.01784e-01        0.00000e+00 
 54.60        3.95604e+00        1.07173e-01        0.00000e+00 
 55.30        3.95334e+00        1.12657e-01        0.00000e+00 
 56.00        3.95061e+00        1.18237e-01        0.00000e+00 
 56.70        3.94784e+00        1.23912e-01        0.00000e+00 
 57.40        3.94503e+00        1.29681e-01        0.00000e+00 
 58.10        3.94219e+00        1.35543e-01        0.00000e+00 
 58.80        3.93931e+00        1.41498e-01        0.00000e+00 
 59.50        3.93640e+00        1.47546e-01        0.00000e+00 
 60.20        3.93344e+00        1.53685e-01        0.00000e+00 
 60.90        3.93045e+00        1.59914e-01        0.00000e+00 
 61.60        3.92742e+00        1.66234e-01        0.00000e+00 
 62.30        3.92435e+00        1.72644e-01        0.00000e+00 
 63.00        3.92123e+00        1.79142e-01        0.00000e+00 
 63.70        3.91808e+00        1.85728e-01        0.00000e+00 
 64.40        3.91488e+00        1.92401e-01        0.00000e+00 
 65.10        3.91165e+00        1.99161e-01        0.00000e+00 
 65.80        3.90836e+00        2.06006e-01        0.00000e+00 
 66.50        3.90504e+00        2.12936e-01        0.00000e+00 
 67.20        3.90167e+00        2.19950e-01        0.00000e+00 
 67.90        3.89825e+00        2.27047e-01        0.00000e+00 
 68.60        3.89479e+00        2.34226e-01        0.00000e+00 
 69.30        3.89128e+00        2.41487e-01        0.00000e+00 
 70.00        3.88772e+00        2.48828e-01        0.00000e+00 
 70.70        3.88412e+00        2.56250e-01        0.00000e+00 
 71.40        3.88046e+00        2.63750e-01        0.00000e+00 
 72.10        3.87676e+00        2.71327e-01        0.00000e+00 
 72.80        3.87301e+00        2.78982e-01        0.00000e+00 
 73.50        3.86921e+00        2.86713e-01        0.00000e+00 
 74.20        3.86536e+00        2.94519e-01        0.00000e+00 
 74.90        3.86146e+00        3.02399e-01        0.00000e+00 
 75.60        3.85750e+00        3.10353e-01        0.00000e+00 
 76.30        3.85349e+00        3.18378e-01        0.00000e+00 
 77.00        3.84943e+00        3.26475e-01        0.00000e+00 
 77.70        3.84532e+00        3.34642e-01        0.00000e+00 
 78.40        3.84115e+00        3.42878e-01        0.00000e+00 
 79.10        3.83693e+00        3.51182e-01        0.00000e+00 
 79.80        3.83265e+00        3.59553e-01        0.00000e+00 
 80.50        3.82832e+00        3.67990e-01        0.00000e+00 
 81.20        3.82393e+00        3.76493e-01        0.00000e+00 
 81.90        3.81948e+00        3.85059e-01        0.00000e+00 
 82.60        3.81498e+00        3.93688e-01        0.00000e+00 
 83.30        3.81042e+00        4.02379e-01        0.00000e+00 
 84.00        3.80580e+00        4.11130e-01        0.00000e+00 
 84.70        3.80113e+00        4.19941e-01        0.00000e+00 
 85.40        3.79639e+00        4.28811e-01        0.00000e+00 
 86.10        3.79160e+00        4.37737e-01        0.00000e+00 
 86.80        3.78675e+00        4.46720e-01        0.00000e+00 
 87.50        3.78183e+00        4.55759e-01        0.00000e+00 
 88.20        3.77686e+00        4.64850e-01        0.00000e+00 
 88.90        3.77183e+00        4.73995e-01        0.00000e+00 
 89.60        3.76674e+00        4.83192e-01        0.00000e+00 
 90.30        3.76158e+00        4.92438e-01        0.00000e+00 
 91.00        3.75637e+00        5.01734e-01        0.00000e+00 
 91.70        3.75109e+00        5.11078e-01        0.00000e+00 
 92.40        3.74575e+00        5.20469e-01        0.00000e+00 
 93.10        3.74035e+00        5.29906e-01        0.00000e+00 
 93.80        3.73488e+00        5.39387e-01        0.00000e+00 
 94.50        3.72935e+00        5.48912e-01        0.00000e+00 
 95.20        3.72376e+00        5.58479e-01        0.00000e+00 
 95.90        3.71811e+00        5.68086e-01        0.00000e+00 
 96.60        3.71239e+00        5.77734e-01        0.00000e+00 
 97.30        3.70661e+00        5.87420e-01        0.00000e+00 
 98.00        3.70077e+00        5.97143e-01        0.00000e+00 
 98.70        3.69486e+00        6.06902e-01        0.00000e+00 
 99.40        3.68889e+00        6.16696e-01        0.00000e+00 
 100.10        3.68286e+00        6.26524e-01        0.00000e+00 
 100.80        3.67675e+00        6.36384e-01        0.00000e+00 
 101.50        3.67059e+00        6.46276e-01        0.00000e+00 
 102.20        3.66436e+00        6.56197e-01        0.00000e+00 
 102.90        3.65807e+00        6.66147e-01        0.00000e+00 
 103.60        3.65171e+00        6.76125e-01        0.00000e+00 
 104.30        3.64529e+00        6.86129e-01        0.00000e+00 
 105.00        3.63880e+00        6.96158e-01        0.00000e+00 
 105.70        3.63225e+00        7.06211e-01        0.00000e+00 
 106.40        3.62563e+00        7.16286e-01        0.00000e+00 
 107.10        3.61895e+00        7.26383e-01        0.00000e+00 
 107.80        3.61220e+00        7.36501e-01        0.00000e+00 
 108.50        3.60539e+00        7.46637e-01        0.00000e+00 
 109.20        3.59851e+00        7.56791e-01        0.00000e+00 
 109.90        3.59157e+00        7.66962e-01        0.00000e+00 
 110.60        3.58457e+00        7.77148e-01        0.00000e+00 
 111.30        3.57750e+00        7.87348e-01        0.00000e+00 
 112.00        3.57037e+00        7.97561e-01        0.00000e+00 
 112.70        3.56317e+00        8.07786e-01        0.00000e+00 
 113.40        3.55591e+00        8.18022e-01        0.00000e+00 
 114.10        3.54858e+00        8.28267e-01        0.00000e+00 
 114.80        3.54119e+00        8.38520e-01        0.00000e+00 
 115.50        3.53374e+00        8.48780e-01        0.00000e+00 
 116.20        3.52623e+00        8.59047e-01        0.00000e+00 
 116.90        3.51865e+00        8.69318e-01        0.00000e+00 
 117.60        3.51100e+00        8.79592e-01        0.00000e+00 
 118.30        3.50330e+00        8.89869e-01        0.00000e+00 
 119.00        3.49553e+00        9.00147e-01        0.00000e+00 
 119.70        3.48770e+00        9.10426e-01        0.00000e+00 
 120.40        3.47981e+00        9.20704e-01        0.00000e+00 
 121.10        3.47186e+00        9.30979e-01        0.00000e+00 
 121.80        3.46384e+00        9.41251e-01        0.00000e+00 
 122.50        3.45577e+00        9.51519e-01        0.00000e+00 
 123.20        3.44763e+00        9.61782e-01        0.00000e+00 
 123.90        3.43943e+00        9.72038e-01        0.00000e+00 
 124.60        3.43118e+00        9.82287e-01        0.00000e+00 
 125.30        3.42286e+00        9.92527e-01        0.00000e+00 
 126.00        3.41448e+00        1.00276e+00        0.00000e+00 
 126.70        3.40604e+00        1.01298e+00        0.00000e+00 
 127.40        3.39755e+00        1.02318e+00        0.00000e+00 
 128.10        3.38900e+00        1.03338e+00        0.00000e+00 
 128.80        3.38038e+00        1.04356e+00        0.00000e+00 
 129.50        3.37172e+00        1.05373e+00        0.00000e+00 
 130.20        3.36299e+00        1.06388e+00        0.00000e+00 
 130.90        3.35421e+00        1.07401e+00        0.00000e+00 
 131.60        3.34537e+00        1.08413e+00        0.00000e+00 
 132.30        3.33647e+00        1.09422e+00        0.00000e+00 
 133.00        3.32752e+00        1.10430e+00        0.00000e+00 
 133.70        3.31851e+00        1.11436e+00        0.00000e+00 
 134.40        3.30945e+00        1.12439e+00        0.00000e+00 
 135.10        3.30034e+00        1.13440e+00        0.00000e+00 
 135.80        3.29117e+00        1.14439e+00        0.00000e+00 
 136.50        3.28194e+00        1.15436e+00        0.00000e+00 
 137.20        3.27267e+00        1.16430e+00        0.00000e+00 
 137.90        3.26334e+00        1.17421e+00        0.00000e+00 
 138.60        3.25396e+00        1.18409e+00        0.00000e+00 
 139.30        3.24453e+00        1.19395e+00        0.00000e+00 
 140.00        3.23505e+00        1.20378e+00        0.00000e+00 
 140.70        3.22552e+00        1.21358e+00        0.00000e+00 
 141.40        3.21594e+00        1.22335e+00        0.00000e+00 
 142.10        3.20631e+00        1.23309e+00        0.00000e+00 
 142.80        3.19663e+00        1.24279e+00        0.00000e+00 
 143.50        3.18691e+00        1.25247e+00        0.00000e+00 
 144.20        3.17713e+00        1.26211e+00        0.00000e+00 
 144.90        3.16731e+00        1.27171e+00        0.00000e+00 
 145.60        3.15744e+00        1.28128e+00        0.00000e+00 
 146.30        3.14753e+00        1.29082e+00        0.00000e+00 
 147.00        3.13757e+00        1.30032e+00        0.00000e+00 
 147.70        3.12757e+00        1.30978e+00        0.00000e+00 
 148.40        3.11753e+00        1.31920e+00        0.00000e+00 
 149.10        3.10744e+00        1.32858e+00        0.00000e+00 
 149.80        3.09730e+00        1.33793e+00        0.00000e+00 
 150.50        3.08713e+00        1.34723e+00        0.00000e+00 
 151.20        3.07691e+00        1.35650e+00        0.00000e+00 
 151.90        3.06665e+00        1.36572e+00        0.00000e+00 
 152.60        3.05636e+00        1.37490e+00        0.00000e+00 
 153.30        3.04602e+00        1.38404e+00        0.00000e+00 
 154.00        3.03564e+00        1.39314e+00        0.00000e+00 
 154.70        3.02523e+00        1.40219e+00        0.00000e+00 
 155.40        3.01477e+00        1.41120e+00        0.00000e+00 
 156.10        3.00428e+00        1.42016e+00        0.00000e+00 
 156.80        2.99375e+00        1.42908e+00        0.00000e+00 
 157.50        2.98319e+00        1.43795e+00        0.00000e+00 
 158.20        2.97259e+00        1.44678e+00        0.00000e+00 
 158.90        2.96195e+00        1.45556e+00        0.00000e+00 
 159.60        2.95129e+00        1.46429e+00        0.00000e+00 
 160.30        2.94058e+00        1.47297e+00        0.00000e+00 
 161.00        2.92985e+00        1.48161e+00        0.00000e+00 
 161.70        2.91908e+00        1.49019e+00        0.00000e+00 
 162.40        2.90828e+00        1.49873e+00        0.00000e+00 
 163.10        2.89745e+00        1.50722e+00        0.00000e+00 
 163.80        2.88659e+00        1.51566e+00        0.00000e+00 
 164.50        2.87570e+00        1.52404e+00        0.00000e+00 
 165.20        2.86478e+00        1.53238e+00        0.00000e+00 
 165.90        2.85383e+00        1.54066e+00        0.00000e+00 
 166.60        2.84285e+00        1.54890e+00        0.00000e+00 
 167.30        2.83185e+00        1.55708e+00        0.00000e+00 
 168.00        2.82082e+00        1.56521e+00        0.00000e+00 
 168.70        2.80976e+00        1.57328e+00        0.00000e+00 
 169.40        2.79868e+00        1.58131e+00        0.00000e+00 
 170.10        2.78757e+00        1.58928e+00        0.00000e+00 
 170.80        2.77644e+00        1.59719e+00        0.00000e+00 
 171.50        2.76529e+00        1.60505e+00        0.00000e+00 
 172.20        2.75411e+00        1.61286e+00        0.00000e+00 
 172.90        2.74291e+00        1.62061e+00        0.00000e+00 
 173.60        2.73169e+00        1.62831e+00        0.00000e+00 
 174.30        2.72044e+00        1.63595e+00        0.00000e+00 
 175.00        2.70918e+00        1.64354e+00        0.00000e+00 
 175.70        2.69790e+00        1.65107e+00        0.00000e+00 
 176.40        2.68659e+00        1.65855e+00        0.00000e+00 
 177.10        2.67527e+00        1.66597e+00        0.00000e+00 
 177.80        2.66393e+00        1.67333e+00        0.00000e+00 
 178.50        2.65257e+00        1.68064e+00        0.00000e+00 
 179.20        2.64120e+00        1.68789e+00        0.00000e+00 
 179.90        2.62981e+00        1.69509e+00        0.00000e+00 
 180.60        2.61840e+00        1.70222e+00        0.00000e+00 
 181.30        2.60698e+00        1.70930e+00        0.00000e+00 
 182.00        2.59555e+00        1.71633e+00        0.00000e+00 
 182.70        2.58410e+00        1.72329e+00        0.00000e+00 
 183.40        2.57263e+00        1.73020e+00        0.00000e+00 
 184.10        2.56116e+00        1.73705e+00        0.00000e+00 
 184.80        2.54967e+00        1.74384e+00        0.00000e+00 
 185.50        2.53817e+00        1.75058e+00        0.00000e+00 
 186.20        2.52666e+00        1.75725e+00        0.00000e+00 
 186.90        2.51514e+00        1.76387e+00        0.00000e+00 
 187.60        2.50361e+00        1.77043e+00        0.00000e+00 
 188.30        2.49207e+00        1.77694e+00        0.00000e+00 
 189.00        2.48052e+00        1.78338e+00        0.00000e+00 
 189.70        2.46896e+00        1.78977e+00        0.00000e+00 
 190.40        2.45740e+00        1.79609e+00        0.00000e+00 
 191.10        2.44582e+00        1.80236e+00        0.00000e+00 
 191.80        2.43424e+00        1.80857e+00        0.00000e+00 
 192.50        2.42266e+00        1.81473e+00        0.00000e+00 
 193.20        2.41107e+00        1.82082e+00        0.00000e+00 
 193.90        2.39947e+00        1.82686e+00        0.00000e+00 
 194.60        2.38787e+00        1.83284e+00        0.00000e+00 
 195.30        2.37627e+00        1.83875e+00        0.00000e+00 
 196.00        2.36466e+00        1.84462e+00        0.00000e+00 
 196.70        2.35305e+00        1.85042e+00        0.00000e+00 
 197.40        2.34144e+00        1.85616e+00        0.00000e+00 
 198.10        2.32982e+00        1.86185e+00        0.00000e+00 
 198.80        2.31820e+00        1.86748e+00        0.00000e+00 
 199.50        2.30659e+00        1.87305e+00        0.00000e+00 
 200.20        2.29497e+00        1.87856e+00        0.00000e+00 
 200.90        2.28335e+00        1.88401e+00        0.00000e+00 
 201.60        2.27173e+00        1.88941e+00        0.00000e+00 
 202.30        2.26011e+00        1.89474e+00        0.00000e+00 
 203.00        2.24850e+00        1.90002e+00        0.00000e+00 
 203.70        2.23688e+00        1.90525e+00        0.00000e+00 
 204.40        2.22527e+00        1.91041e+00        0.00000e+00 
 205.10        2.21366e+00        1.91552e+00        0.00000e+00 
 205.80        2.20206e+00        1.92057e+00        0.00000e+00 
 206.50        2.19046e+00        1.92556e+00        0.00000e+00 
 207.20        2.17886e+00        1.93049e+00        0.00000e+00 
 207.90        2.16726e+00        1.93537e+00        0.00000e+00 
 208.60        2.15568e+00        1.94019e+00        0.00000e+00 
 209.30        2.14409e+00        1.94496e+00        0.00000e+00 
 210.00        2.13252e+00        1.94966e+00        0.00000e+00 
 210.70        2.12094e+00        1.95431e+00        0.00000e+00 
 211.40        2.10938e+00        1.95891e+00        0.00000e+00 
