#Navio B MarAd
#Manobra de Curva Giro
#
#Velocidade Inercial
#
#temp           u           v           r
 0.00        4.11000e+00        0.00000e+00        0.00000e+00 
 0.70        4.11000e+00        8.38136e-05        0.00000e+00 
 1.40        4.11000e+00        1.64115e-04        0.00000e+00 
 2.10        4.10816e+00        -2.68358e-03        0.00000e+00 
 2.80        4.10632e+00        -5.41160e-03        0.00000e+00 
 3.50        4.10449e+00        -8.02057e-03        0.00000e+00 
 4.20        4.10265e+00        -1.05111e-02        0.00000e+00 
 4.90        4.10082e+00        -1.28837e-02        0.00000e+00 
 5.60        4.09900e+00        -1.51389e-02        0.00000e+00 
 6.30        4.09717e+00        -1.72774e-02        0.00000e+00 
 7.00        4.09535e+00        -1.92996e-02        0.00000e+00 
 7.70        4.09352e+00        -2.12060e-02        0.00000e+00 
 8.40        4.09170e+00        -2.29972e-02        0.00000e+00 
 9.10        4.08988e+00        -2.46736e-02        0.00000e+00 
 9.80        4.08806e+00        -2.62358e-02        0.00000e+00 
 10.50        4.08624e+00        -2.76842e-02        0.00000e+00 
 11.20        4.08441e+00        -2.90192e-02        0.00000e+00 
 11.90        4.08259e+00        -3.02413e-02        0.00000e+00 
 12.60        4.08077e+00        -3.13510e-02        0.00000e+00 
 13.30        4.07894e+00        -3.23486e-02        0.00000e+00 
 14.00        4.07712e+00        -3.32347e-02        0.00000e+00 
 14.70        4.07529e+00        -3.40096e-02        0.00000e+00 
 15.40        4.07345e+00        -3.46737e-02        0.00000e+00 
 16.10        4.07162e+00        -3.52274e-02        0.00000e+00 
 16.80        4.06978e+00        -3.56712e-02        0.00000e+00 
 17.50        4.06794e+00        -3.60053e-02        0.00000e+00 
 18.20        4.06609e+00        -3.62303e-02        0.00000e+00 
 18.90        4.06423e+00        -3.63465e-02        0.00000e+00 
 19.60        4.06237e+00        -3.63543e-02        0.00000e+00 
 20.30        4.06051e+00        -3.62540e-02        0.00000e+00 
 21.00        4.05864e+00        -3.60460e-02        0.00000e+00 
 21.70        4.05676e+00        -3.57307e-02        0.00000e+00 
 22.40        4.05487e+00        -3.53085e-02        0.00000e+00 
 23.10        4.05297e+00        -3.47797e-02        0.00000e+00 
 23.80        4.05107e+00        -3.41448e-02        0.00000e+00 
 24.50        4.04916e+00        -3.34039e-02        0.00000e+00 
 25.20        4.04723e+00        -3.25577e-02        0.00000e+00 
 25.90        4.04530e+00        -3.16063e-02        0.00000e+00 
 26.60        4.04335e+00        -3.05502e-02        0.00000e+00 
 27.30        4.04139e+00        -2.93897e-02        0.00000e+00 
 28.00        4.03942e+00        -2.81253e-02        0.00000e+00 
 28.70        4.03744e+00        -2.67572e-02        0.00000e+00 
 29.40        4.03544e+00        -2.52859e-02        0.00000e+00 
 30.10        4.03343e+00        -2.37118e-02        0.00000e+00 
 30.80        4.03140e+00        -2.20352e-02        0.00000e+00 
 31.50        4.02936e+00        -2.02565e-02        0.00000e+00 
 32.20        4.02730e+00        -1.83761e-02        0.00000e+00 
 32.90        4.02522e+00        -1.63945e-02        0.00000e+00 
 33.60        4.02313e+00        -1.43119e-02        0.00000e+00 
 34.30        4.02102e+00        -1.21289e-02        0.00000e+00 
 35.00        4.01889e+00        -9.84579e-03        0.00000e+00 
 35.70        4.01674e+00        -7.46306e-03        0.00000e+00 
 36.40        4.01457e+00        -4.98110e-03        0.00000e+00 
 37.10        4.01238e+00        -2.40035e-03        0.00000e+00 
 37.80        4.01016e+00        2.78743e-04        0.00000e+00 
 38.50        4.00793e+00        3.05574e-03        0.00000e+00 
 39.20        4.00567e+00        5.93018e-03        0.00000e+00 
 39.90        4.00339e+00        8.90161e-03        0.00000e+00 
 40.60        4.00108e+00        1.19696e-02        0.00000e+00 
 41.30        3.99875e+00        1.51335e-02        0.00000e+00 
 42.00        3.99640e+00        1.83931e-02        0.00000e+00 
 42.70        3.99402e+00        2.17476e-02        0.00000e+00 
 43.40        3.99161e+00        2.51968e-02        0.00000e+00 
 44.10        3.98917e+00        2.87399e-02        0.00000e+00 
 44.80        3.98670e+00        3.23766e-02        0.00000e+00 
 45.50        3.98421e+00        3.61063e-02        0.00000e+00 
 46.20        3.98169e+00        3.99283e-02        0.00000e+00 
 46.90        3.97913e+00        4.38423e-02        0.00000e+00 
 47.60        3.97655e+00        4.78476e-02        0.00000e+00 
 48.30        3.97393e+00        5.19436e-02        0.00000e+00 
 49.00        3.97128e+00        5.61297e-02        0.00000e+00 
 49.70        3.96860e+00        6.04055e-02        0.00000e+00 
 50.40        3.96589e+00        6.47701e-02        0.00000e+00 
 51.10        3.96314e+00        6.92231e-02        0.00000e+00 
 51.80        3.96035e+00        7.37639e-02        0.00000e+00 
 52.50        3.95753e+00        7.83917e-02        0.00000e+00 
 53.20        3.95467e+00        8.31059e-02        0.00000e+00 
 53.90        3.95178e+00        8.79058e-02        0.00000e+00 
 54.60        3.94885e+00        9.27909e-02        0.00000e+00 
 55.30        3.94588e+00        9.77603e-02        0.00000e+00 
 56.00        3.94287e+00        1.02813e-01        0.00000e+00 
 56.70        3.93982e+00        1.07950e-01        0.00000e+00 
 57.40        3.93674e+00        1.13168e-01        0.00000e+00 
 58.10        3.93361e+00        1.18468e-01        0.00000e+00 
 58.80        3.93044e+00        1.23849e-01        0.00000e+00 
 59.50        3.92723e+00        1.29310e-01        0.00000e+00 
 60.20        3.92397e+00        1.34850e-01        0.00000e+00 
 60.90        3.92067e+00        1.40468e-01        0.00000e+00 
 61.60        3.91733e+00        1.46165e-01        0.00000e+00 
 62.30        3.91395e+00        1.51938e-01        0.00000e+00 
 63.00        3.91052e+00        1.57788e-01        0.00000e+00 
 63.70        3.90704e+00        1.63712e-01        0.00000e+00 
 64.40        3.90352e+00        1.69712e-01        0.00000e+00 
 65.10        3.89995e+00        1.75784e-01        0.00000e+00 
 65.80        3.89634e+00        1.81930e-01        0.00000e+00 
 66.50        3.89268e+00        1.88148e-01        0.00000e+00 
 67.20        3.88897e+00        1.94436e-01        0.00000e+00 
 67.90        3.88521e+00        2.00795e-01        0.00000e+00 
 68.60        3.88140e+00        2.07223e-01        0.00000e+00 
 69.30        3.87754e+00        2.13719e-01        0.00000e+00 
 70.00        3.87363e+00        2.20283e-01        0.00000e+00 
 70.70        3.86968e+00        2.26914e-01        0.00000e+00 
 71.40        3.86567e+00        2.33609e-01        0.00000e+00 
 72.10        3.86161e+00        2.40370e-01        0.00000e+00 
 72.80        3.85749e+00        2.47194e-01        0.00000e+00 
 73.50        3.85333e+00        2.54081e-01        0.00000e+00 
 74.20        3.84911e+00        2.61030e-01        0.00000e+00 
 74.90        3.84484e+00        2.68040e-01        0.00000e+00 
 75.60        3.84052e+00        2.75109e-01        0.00000e+00 
 76.30        3.83614e+00        2.82237e-01        0.00000e+00 
 77.00        3.83171e+00        2.89423e-01        0.00000e+00 
 77.70        3.82722e+00        2.96666e-01        0.00000e+00 
 78.40        3.82268e+00        3.03964e-01        0.00000e+00 
 79.10        3.81809e+00        3.11317e-01        0.00000e+00 
 79.80        3.81343e+00        3.18724e-01        0.00000e+00 
 80.50        3.80873e+00        3.26184e-01        0.00000e+00 
 81.20        3.80396e+00        3.33695e-01        0.00000e+00 
 81.90        3.79914e+00        3.41257e-01        0.00000e+00 
 82.60        3.79427e+00        3.48868e-01        0.00000e+00 
 83.30        3.78933e+00        3.56528e-01        0.00000e+00 
 84.00        3.78434e+00        3.64235e-01        0.00000e+00 
 84.70        3.77929e+00        3.71988e-01        0.00000e+00 
 85.40        3.77419e+00        3.79787e-01        0.00000e+00 
 86.10        3.76902e+00        3.87630e-01        0.00000e+00 
 86.80        3.76380e+00        3.95515e-01        0.00000e+00 
 87.50        3.75852e+00        4.03443e-01        0.00000e+00 
 88.20        3.75318e+00        4.11412e-01        0.00000e+00 
 88.90        3.74778e+00        4.19420e-01        0.00000e+00 
 89.60        3.74233e+00        4.27467e-01        0.00000e+00 
 90.30        3.73681e+00        4.35552e-01        0.00000e+00 
 91.00        3.73124e+00        4.43673e-01        0.00000e+00 
 91.70        3.72561e+00        4.51829e-01        0.00000e+00 
 92.40        3.71992e+00        4.60020e-01        0.00000e+00 
 93.10        3.71417e+00        4.68244e-01        0.00000e+00 
 93.80        3.70836e+00        4.76499e-01        0.00000e+00 
 94.50        3.70249e+00        4.84786e-01        0.00000e+00 
 95.20        3.69656e+00        4.93102e-01        0.00000e+00 
 95.90        3.69057e+00        5.01448e-01        0.00000e+00 
 96.60        3.68453e+00        5.09820e-01        0.00000e+00 
 97.30        3.67842e+00        5.18219e-01        0.00000e+00 
 98.00        3.67226e+00        5.26644e-01        0.00000e+00 
 98.70        3.66603e+00        5.35092e-01        0.00000e+00 
 99.40        3.65975e+00        5.43564e-01        0.00000e+00 
 100.10        3.65341e+00        5.52058e-01        0.00000e+00 
 100.80        3.64701e+00        5.60572e-01        0.00000e+00 
 101.50        3.64055e+00        5.69107e-01        0.00000e+00 
 102.20        3.63403e+00        5.77660e-01        0.00000e+00 
 102.90        3.62745e+00        5.86231e-01        0.00000e+00 
 103.60        3.62082e+00        5.94818e-01        0.00000e+00 
 104.30        3.61413e+00        6.03420e-01        0.00000e+00 
 105.00        3.60737e+00        6.12037e-01        0.00000e+00 
 105.70        3.60056e+00        6.20667e-01        0.00000e+00 
 106.40        3.59370e+00        6.29309e-01        0.00000e+00 
 107.10        3.58677e+00        6.37963e-01        0.00000e+00 
 107.80        3.57979e+00        6.46626e-01        0.00000e+00 
 108.50        3.57275e+00        6.55298e-01        0.00000e+00 
 109.20        3.56566e+00        6.63978e-01        0.00000e+00 
 109.90        3.55850e+00        6.72665e-01        0.00000e+00 
 110.60        3.55130e+00        6.81358e-01        0.00000e+00 
 111.30        3.54403e+00        6.90055e-01        0.00000e+00 
 112.00        3.53671e+00        6.98756e-01        0.00000e+00 
 112.70        3.52933e+00        7.07460e-01        0.00000e+00 
 113.40        3.52190e+00        7.16165e-01        0.00000e+00 
 114.10        3.51442e+00        7.24871e-01        0.00000e+00 
 114.80        3.50688e+00        7.33577e-01        0.00000e+00 
 115.50        3.49928e+00        7.42281e-01        0.00000e+00 
 116.20        3.49163e+00        7.50983e-01        0.00000e+00 
 116.90        3.48393e+00        7.59682e-01        0.00000e+00 
 117.60        3.47618e+00        7.68376e-01        0.00000e+00 
 118.30        3.46837e+00        7.77065e-01        0.00000e+00 
 119.00        3.46051e+00        7.85747e-01        0.00000e+00 
 119.70        3.45260e+00        7.94423e-01        0.00000e+00 
 120.40        3.44463e+00        8.03090e-01        0.00000e+00 
 121.10        3.43662e+00        8.11748e-01        0.00000e+00 
 121.80        3.42855e+00        8.20397e-01        0.00000e+00 
 122.50        3.42044e+00        8.29034e-01        0.00000e+00 
 123.20        3.41227e+00        8.37659e-01        0.00000e+00 
 123.90        3.40406e+00        8.46272e-01        0.00000e+00 
 124.60        3.39579e+00        8.54871e-01        0.00000e+00 
 125.30        3.38748e+00        8.63456e-01        0.00000e+00 
 126.00        3.37912e+00        8.72025e-01        0.00000e+00 
 126.70        3.37071e+00        8.80579e-01        0.00000e+00 
 127.40        3.36226e+00        8.89115e-01        0.00000e+00 
 128.10        3.35376e+00        8.97633e-01        0.00000e+00 
 128.80        3.34521e+00        9.06133e-01        0.00000e+00 
 129.50        3.33662e+00        9.14613e-01        0.00000e+00 
 130.20        3.32799e+00        9.23073e-01        0.00000e+00 
 130.90        3.31930e+00        9.31512e-01        0.00000e+00 
 131.60        3.31058e+00        9.39929e-01        0.00000e+00 
 132.30        3.30181e+00        9.48324e-01        0.00000e+00 
 133.00        3.29300e+00        9.56695e-01        0.00000e+00 
 133.70        3.28415e+00        9.65042e-01        0.00000e+00 
 134.40        3.27525e+00        9.73364e-01        0.00000e+00 
 135.10        3.26632e+00        9.81661e-01        0.00000e+00 
 135.80        3.25734e+00        9.89931e-01        0.00000e+00 
 136.50        3.24832e+00        9.98175e-01        0.00000e+00 
 137.20        3.23927e+00        1.00639e+00        0.00000e+00 
 137.90        3.23018e+00        1.01458e+00        0.00000e+00 
 138.60        3.22104e+00        1.02274e+00        0.00000e+00 
 139.30        3.21187e+00        1.03087e+00        0.00000e+00 
 140.00        3.20267e+00        1.03897e+00        0.00000e+00 
 140.70        3.19342e+00        1.04703e+00        0.00000e+00 
 141.40        3.18414e+00        1.05507e+00        0.00000e+00 
 142.10        3.17483e+00        1.06308e+00        0.00000e+00 
 142.80        3.16548e+00        1.07105e+00        0.00000e+00 
 143.50        3.15610e+00        1.07899e+00        0.00000e+00 
 144.20        3.14668e+00        1.08689e+00        0.00000e+00 
 144.90        3.13723e+00        1.09476e+00        0.00000e+00 
 145.60        3.12775e+00        1.10260e+00        0.00000e+00 
 146.30        3.11823e+00        1.11040e+00        0.00000e+00 
 147.00        3.10869e+00        1.11816e+00        0.00000e+00 
 147.70        3.09911e+00        1.12589e+00        0.00000e+00 
 148.40        3.08951e+00        1.13358e+00        0.00000e+00 
 149.10        3.07988e+00        1.14124e+00        0.00000e+00 
 149.80        3.07021e+00        1.14885e+00        0.00000e+00 
 150.50        3.06052e+00        1.15643e+00        0.00000e+00 
 151.20        3.05081e+00        1.16397e+00        0.00000e+00 
 151.90        3.04106e+00        1.17147e+00        0.00000e+00 
 152.60        3.03129e+00        1.17893e+00        0.00000e+00 
 153.30        3.02150e+00        1.18635e+00        0.00000e+00 
 154.00        3.01168e+00        1.19373e+00        0.00000e+00 
 154.70        3.00183e+00        1.20107e+00        0.00000e+00 
 155.40        2.99196e+00        1.20837e+00        0.00000e+00 
 156.10        2.98207e+00        1.21563e+00        0.00000e+00 
 156.80        2.97216e+00        1.22284e+00        0.00000e+00 
 157.50        2.96222e+00        1.23001e+00        0.00000e+00 
 158.20        2.95227e+00        1.23714e+00        0.00000e+00 
 158.90        2.94229e+00        1.24423e+00        0.00000e+00 
 159.60        2.93229e+00        1.25127e+00        0.00000e+00 
 160.30        2.92228e+00        1.25828e+00        0.00000e+00 
 161.00        2.91224e+00        1.26523e+00        0.00000e+00 
 161.70        2.90219e+00        1.27215e+00        0.00000e+00 
 162.40        2.89212e+00        1.27901e+00        0.00000e+00 
 163.10        2.88203e+00        1.28584e+00        0.00000e+00 
 163.80        2.87193e+00        1.29262e+00        0.00000e+00 
 164.50        2.86181e+00        1.29935e+00        0.00000e+00 
 165.20        2.85167e+00        1.30604e+00        0.00000e+00 
 165.90        2.84152e+00        1.31269e+00        0.00000e+00 
 166.60        2.83136e+00        1.31929e+00        0.00000e+00 
 167.30        2.82118e+00        1.32584e+00        0.00000e+00 
 168.00        2.81100e+00        1.33234e+00        0.00000e+00 
 168.70        2.80079e+00        1.33881e+00        0.00000e+00 
 169.40        2.79058e+00        1.34522e+00        0.00000e+00 
 170.10        2.78036e+00        1.35159e+00        0.00000e+00 
 170.80        2.77012e+00        1.35791e+00        0.00000e+00 
 171.50        2.75988e+00        1.36418e+00        0.00000e+00 
 172.20        2.74962e+00        1.37041e+00        0.00000e+00 
 172.90        2.73936e+00        1.37659e+00        0.00000e+00 
 173.60        2.72909e+00        1.38272e+00        0.00000e+00 
 174.30        2.71881e+00        1.38881e+00        0.00000e+00 
 175.00        2.70853e+00        1.39485e+00        0.00000e+00 
 175.70        2.69823e+00        1.40084e+00        0.00000e+00 
 176.40        2.68793e+00        1.40679e+00        0.00000e+00 
 177.10        2.67763e+00        1.41268e+00        0.00000e+00 
 177.80        2.66732e+00        1.41853e+00        0.00000e+00 
 178.50        2.65701e+00        1.42433e+00        0.00000e+00 
 179.20        2.64669e+00        1.43009e+00        0.00000e+00 
 179.90        2.63637e+00        1.43579e+00        0.00000e+00 
 180.60        2.62604e+00        1.44145e+00        0.00000e+00 
 181.30        2.61572e+00        1.44706e+00        0.00000e+00 
 182.00        2.60539e+00        1.45262e+00        0.00000e+00 
 182.70        2.59506e+00        1.45814e+00        0.00000e+00 
 183.40        2.58473e+00        1.46361e+00        0.00000e+00 
 184.10        2.57440e+00        1.46903e+00        0.00000e+00 
 184.80        2.56407e+00        1.47440e+00        0.00000e+00 
 185.50        2.55373e+00        1.47972e+00        0.00000e+00 
 186.20        2.54340e+00        1.48500e+00        0.00000e+00 
 186.90        2.53307e+00        1.49023e+00        0.00000e+00 
 187.60        2.52275e+00        1.49541e+00        0.00000e+00 
 188.30        2.51242e+00        1.50054e+00        0.00000e+00 
 189.00        2.50210e+00        1.50563e+00        0.00000e+00 
 189.70        2.49178e+00        1.51067e+00        0.00000e+00 
 190.40        2.48147e+00        1.51566e+00        0.00000e+00 
 191.10        2.47116e+00        1.52060e+00        0.00000e+00 
 191.80        2.46085e+00        1.52550e+00        0.00000e+00 
 192.50        2.45055e+00        1.53035e+00        0.00000e+00 
 193.20        2.44025e+00        1.53515e+00        0.00000e+00 
 193.90        2.42996e+00        1.53991e+00        0.00000e+00 
 194.60        2.41968e+00        1.54462e+00        0.00000e+00 
 195.30        2.40940e+00        1.54928e+00        0.00000e+00 
 196.00        2.39913e+00        1.55390e+00        0.00000e+00 
 196.70        2.38887e+00        1.55847e+00        0.00000e+00 
 197.40        2.37861e+00        1.56299e+00        0.00000e+00 
 198.10        2.36836e+00        1.56747e+00        0.00000e+00 
 198.80        2.35813e+00        1.57190e+00        0.00000e+00 
 199.50        2.34790e+00        1.57628e+00        0.00000e+00 
 200.20        2.33768e+00        1.58062e+00        0.00000e+00 
 200.90        2.32746e+00        1.58492e+00        0.00000e+00 
 201.60        2.31726e+00        1.58916e+00        0.00000e+00 
 202.30        2.30707e+00        1.59337e+00        0.00000e+00 
 203.00        2.29689e+00        1.59752e+00        0.00000e+00 
 203.70        2.28672e+00        1.60163e+00        0.00000e+00 
 204.40        2.27657e+00        1.60570e+00        0.00000e+00 
 205.10        2.26642e+00        1.60972e+00        0.00000e+00 
 205.80        2.25629e+00        1.61370e+00        0.00000e+00 
 206.50        2.24617e+00        1.61763e+00        0.00000e+00 
 207.20        2.23606e+00        1.62152e+00        0.00000e+00 
 207.90        2.22596e+00        1.62537e+00        0.00000e+00 
 208.60        2.21588e+00        1.62917e+00        0.00000e+00 
 209.30        2.20581e+00        1.63293e+00        0.00000e+00 
 210.00        2.19576e+00        1.63664e+00        0.00000e+00 
 210.70        2.18571e+00        1.64031e+00        0.00000e+00 
 211.40        2.17569e+00        1.64394e+00        0.00000e+00 
