#Navio B MarAd
#Manobra de Curva Giro
#
#Velocidade Sistema Solidário 
#
#temp           u           v           w    dot roll   dot pitch     dot yaw 
 0.00        4.11000e+00        0.00000e+00        0.00000e+00        0.00000e+00        0.00000e+00        0.00000e+00 
 0.70        4.11000e+00        8.64984e-05        0.00000e+00        0.00000e+00        0.00000e+00        -1.86400e-06 
 1.40        4.11000e+00        1.74827e-04        0.00000e+00        0.00000e+00        0.00000e+00        -3.71374e-06 
 2.10        4.10816e+00        -2.75242e-03        0.00000e+00        0.00000e+00        0.00000e+00        5.89500e-05 
 2.80        4.10632e+00        -5.73931e-03        0.00000e+00        0.00000e+00        0.00000e+00        1.21102e-04 
 3.50        4.10449e+00        -8.78475e-03        0.00000e+00        0.00000e+00        0.00000e+00        1.82750e-04 
 4.20        4.10265e+00        -1.18877e-02        0.00000e+00        0.00000e+00        0.00000e+00        2.43904e-04 
 4.90        4.10082e+00        -1.50470e-02        0.00000e+00        0.00000e+00        0.00000e+00        3.04570e-04 
 5.60        4.09898e+00        -1.82616e-02        0.00000e+00        0.00000e+00        0.00000e+00        3.64757e-04 
 6.30        4.09715e+00        -2.15306e-02        0.00000e+00        0.00000e+00        0.00000e+00        4.24472e-04 
 7.00        4.09532e+00        -2.48527e-02        0.00000e+00        0.00000e+00        0.00000e+00        4.83722e-04 
 7.70        4.09348e+00        -2.82271e-02        0.00000e+00        0.00000e+00        0.00000e+00        5.42515e-04 
 8.40        4.09164e+00        -3.16527e-02        0.00000e+00        0.00000e+00        0.00000e+00        6.00858e-04 
 9.10        4.08980e+00        -3.51284e-02        0.00000e+00        0.00000e+00        0.00000e+00        6.58757e-04 
 9.80        4.08796e+00        -3.86534e-02        0.00000e+00        0.00000e+00        0.00000e+00        7.16218e-04 
 10.50        4.08611e+00        -4.22264e-02        0.00000e+00        0.00000e+00        0.00000e+00        7.73248e-04 
 11.20        4.08426e+00        -4.58467e-02        0.00000e+00        0.00000e+00        0.00000e+00        8.29853e-04 
 11.90        4.08240e+00        -4.95131e-02        0.00000e+00        0.00000e+00        0.00000e+00        8.86038e-04 
 12.60        4.08054e+00        -5.32248e-02        0.00000e+00        0.00000e+00        0.00000e+00        9.41809e-04 
 13.30        4.07867e+00        -5.69807e-02        0.00000e+00        0.00000e+00        0.00000e+00        9.97172e-04 
 14.00        4.07680e+00        -6.07800e-02        0.00000e+00        0.00000e+00        0.00000e+00        1.05213e-03 
 14.70        4.07492e+00        -6.46215e-02        0.00000e+00        0.00000e+00        0.00000e+00        1.10669e-03 
 15.40        4.07303e+00        -6.85045e-02        0.00000e+00        0.00000e+00        0.00000e+00        1.16086e-03 
 16.10        4.07113e+00        -7.24279e-02        0.00000e+00        0.00000e+00        0.00000e+00        1.21464e-03 
 16.80        4.06922e+00        -7.63909e-02        0.00000e+00        0.00000e+00        0.00000e+00        1.26804e-03 
 17.50        4.06730e+00        -8.03924e-02        0.00000e+00        0.00000e+00        0.00000e+00        1.32105e-03 
 18.20        4.06537e+00        -8.44317e-02        0.00000e+00        0.00000e+00        0.00000e+00        1.37370e-03 
 18.90        4.06343e+00        -8.85077e-02        0.00000e+00        0.00000e+00        0.00000e+00        1.42596e-03 
 19.60        4.06148e+00        -9.26196e-02        0.00000e+00        0.00000e+00        0.00000e+00        1.47787e-03 
 20.30        4.05952e+00        -9.67664e-02        0.00000e+00        0.00000e+00        0.00000e+00        1.52940e-03 
 21.00        4.05754e+00        -1.00947e-01        0.00000e+00        0.00000e+00        0.00000e+00        1.58058e-03 
 21.70        4.05555e+00        -1.05161e-01        0.00000e+00        0.00000e+00        0.00000e+00        1.63140e-03 
 22.40        4.05355e+00        -1.09408e-01        0.00000e+00        0.00000e+00        0.00000e+00        1.68187e-03 
 23.10        4.05153e+00        -1.13686e-01        0.00000e+00        0.00000e+00        0.00000e+00        1.73199e-03 
 23.80        4.04949e+00        -1.17994e-01        0.00000e+00        0.00000e+00        0.00000e+00        1.78176e-03 
 24.50        4.04744e+00        -1.22332e-01        0.00000e+00        0.00000e+00        0.00000e+00        1.83119e-03 
 25.20        4.04538e+00        -1.26699e-01        0.00000e+00        0.00000e+00        0.00000e+00        1.88027e-03 
 25.90        4.04329e+00        -1.31094e-01        0.00000e+00        0.00000e+00        0.00000e+00        1.92902e-03 
 26.60        4.04119e+00        -1.35515e-01        0.00000e+00        0.00000e+00        0.00000e+00        1.97743e-03 
 27.30        4.03907e+00        -1.39964e-01        0.00000e+00        0.00000e+00        0.00000e+00        2.02550e-03 
 28.00        4.03694e+00        -1.44437e-01        0.00000e+00        0.00000e+00        0.00000e+00        2.07325e-03 
 28.70        4.03478e+00        -1.48935e-01        0.00000e+00        0.00000e+00        0.00000e+00        2.12066e-03 
 29.40        4.03260e+00        -1.53457e-01        0.00000e+00        0.00000e+00        0.00000e+00        2.16775e-03 
 30.10        4.03040e+00        -1.58002e-01        0.00000e+00        0.00000e+00        0.00000e+00        2.21451e-03 
 30.80        4.02818e+00        -1.62569e-01        0.00000e+00        0.00000e+00        0.00000e+00        2.26095e-03 
 31.50        4.02594e+00        -1.67157e-01        0.00000e+00        0.00000e+00        0.00000e+00        2.30707e-03 
 32.20        4.02368e+00        -1.71766e-01        0.00000e+00        0.00000e+00        0.00000e+00        2.35287e-03 
 32.90        4.02139e+00        -1.76394e-01        0.00000e+00        0.00000e+00        0.00000e+00        2.39835e-03 
 33.60        4.01908e+00        -1.81041e-01        0.00000e+00        0.00000e+00        0.00000e+00        2.44351e-03 
 34.30        4.01674e+00        -1.85706e-01        0.00000e+00        0.00000e+00        0.00000e+00        2.48836e-03 
 35.00        4.01439e+00        -1.90389e-01        0.00000e+00        0.00000e+00        0.00000e+00        2.53289e-03 
 35.70        4.01200e+00        -1.95088e-01        0.00000e+00        0.00000e+00        0.00000e+00        2.57711e-03 
 36.40        4.00959e+00        -1.99802e-01        0.00000e+00        0.00000e+00        0.00000e+00        2.62102e-03 
 37.10        4.00716e+00        -2.04532e-01        0.00000e+00        0.00000e+00        0.00000e+00        2.66463e-03 
 37.80        4.00470e+00        -2.09276e-01        0.00000e+00        0.00000e+00        0.00000e+00        2.70792e-03 
 38.50        4.00221e+00        -2.14033e-01        0.00000e+00        0.00000e+00        0.00000e+00        2.75090e-03 
 39.20        3.99969e+00        -2.18802e-01        0.00000e+00        0.00000e+00        0.00000e+00        2.79357e-03 
 39.90        3.99715e+00        -2.23584e-01        0.00000e+00        0.00000e+00        0.00000e+00        2.83594e-03 
 40.60        3.99458e+00        -2.28376e-01        0.00000e+00        0.00000e+00        0.00000e+00        2.87801e-03 
 41.30        3.99198e+00        -2.33179e-01        0.00000e+00        0.00000e+00        0.00000e+00        2.91977e-03 
 42.00        3.98935e+00        -2.37992e-01        0.00000e+00        0.00000e+00        0.00000e+00        2.96122e-03 
 42.70        3.98669e+00        -2.42813e-01        0.00000e+00        0.00000e+00        0.00000e+00        3.00237e-03 
 43.40        3.98400e+00        -2.47642e-01        0.00000e+00        0.00000e+00        0.00000e+00        3.04322e-03 
 44.10        3.98128e+00        -2.52479e-01        0.00000e+00        0.00000e+00        0.00000e+00        3.08377e-03 
 44.80        3.97852e+00        -2.57323e-01        0.00000e+00        0.00000e+00        0.00000e+00        3.12401e-03 
 45.50        3.97574e+00        -2.62172e-01        0.00000e+00        0.00000e+00        0.00000e+00        3.16395e-03 
 46.20        3.97292e+00        -2.67027e-01        0.00000e+00        0.00000e+00        0.00000e+00        3.20359e-03 
 46.90        3.97008e+00        -2.71886e-01        0.00000e+00        0.00000e+00        0.00000e+00        3.24293e-03 
 47.60        3.96719e+00        -2.76749e-01        0.00000e+00        0.00000e+00        0.00000e+00        3.28197e-03 
 48.30        3.96428e+00        -2.81616e-01        0.00000e+00        0.00000e+00        0.00000e+00        3.32071e-03 
 49.00        3.96133e+00        -2.86484e-01        0.00000e+00        0.00000e+00        0.00000e+00        3.35915e-03 
 49.70        3.95835e+00        -2.91355e-01        0.00000e+00        0.00000e+00        0.00000e+00        3.39729e-03 
 50.40        3.95534e+00        -2.96226e-01        0.00000e+00        0.00000e+00        0.00000e+00        3.43513e-03 
 51.10        3.95229e+00        -3.01098e-01        0.00000e+00        0.00000e+00        0.00000e+00        3.47267e-03 
 51.80        3.94920e+00        -3.05969e-01        0.00000e+00        0.00000e+00        0.00000e+00        3.50991e-03 
 52.50        3.94608e+00        -3.10840e-01        0.00000e+00        0.00000e+00        0.00000e+00        3.54685e-03 
 53.20        3.94293e+00        -3.15709e-01        0.00000e+00        0.00000e+00        0.00000e+00        3.58350e-03 
 53.90        3.93974e+00        -3.20576e-01        0.00000e+00        0.00000e+00        0.00000e+00        3.61984e-03 
 54.60        3.93651e+00        -3.25440e-01        0.00000e+00        0.00000e+00        0.00000e+00        3.65589e-03 
 55.30        3.93325e+00        -3.30300e-01        0.00000e+00        0.00000e+00        0.00000e+00        3.69163e-03 
 56.00        3.92995e+00        -3.35156e-01        0.00000e+00        0.00000e+00        0.00000e+00        3.72708e-03 
 56.70        3.92661e+00        -3.40008e-01        0.00000e+00        0.00000e+00        0.00000e+00        3.76223e-03 
 57.40        3.92324e+00        -3.44854e-01        0.00000e+00        0.00000e+00        0.00000e+00        3.79707e-03 
 58.10        3.91982e+00        -3.49694e-01        0.00000e+00        0.00000e+00        0.00000e+00        3.83162e-03 
 58.80        3.91637e+00        -3.54527e-01        0.00000e+00        0.00000e+00        0.00000e+00        3.86587e-03 
 59.50        3.91289e+00        -3.59353e-01        0.00000e+00        0.00000e+00        0.00000e+00        3.89982e-03 
 60.20        3.90936e+00        -3.64171e-01        0.00000e+00        0.00000e+00        0.00000e+00        3.93348e-03 
 60.90        3.90580e+00        -3.68981e-01        0.00000e+00        0.00000e+00        0.00000e+00        3.96683e-03 
 61.60        3.90220e+00        -3.73782e-01        0.00000e+00        0.00000e+00        0.00000e+00        3.99988e-03 
 62.30        3.89856e+00        -3.78573e-01        0.00000e+00        0.00000e+00        0.00000e+00        4.03263e-03 
 63.00        3.89488e+00        -3.83354e-01        0.00000e+00        0.00000e+00        0.00000e+00        4.06509e-03 
 63.70        3.89116e+00        -3.88124e-01        0.00000e+00        0.00000e+00        0.00000e+00        4.09724e-03 
 64.40        3.88741e+00        -3.92883e-01        0.00000e+00        0.00000e+00        0.00000e+00        4.12910e-03 
 65.10        3.88361e+00        -3.97630e-01        0.00000e+00        0.00000e+00        0.00000e+00        4.16065e-03 
 65.80        3.87978e+00        -4.02365e-01        0.00000e+00        0.00000e+00        0.00000e+00        4.19191e-03 
 66.50        3.87590e+00        -4.07087e-01        0.00000e+00        0.00000e+00        0.00000e+00        4.22286e-03 
 67.20        3.87199e+00        -4.11796e-01        0.00000e+00        0.00000e+00        0.00000e+00        4.25352e-03 
 67.90        3.86803e+00        -4.16490e-01        0.00000e+00        0.00000e+00        0.00000e+00        4.28387e-03 
 68.60        3.86404e+00        -4.21171e-01        0.00000e+00        0.00000e+00        0.00000e+00        4.31393e-03 
 69.30        3.86001e+00        -4.25836e-01        0.00000e+00        0.00000e+00        0.00000e+00        4.34368e-03 
 70.00        3.85594e+00        -4.30486e-01        0.00000e+00        0.00000e+00        0.00000e+00        4.37313e-03 
 70.70        3.85183e+00        -4.35119e-01        0.00000e+00        0.00000e+00        0.00000e+00        4.40229e-03 
 71.40        3.84767e+00        -4.39737e-01        0.00000e+00        0.00000e+00        0.00000e+00        4.43114e-03 
 72.10        3.84348e+00        -4.44337e-01        0.00000e+00        0.00000e+00        0.00000e+00        4.45970e-03 
 72.80        3.83925e+00        -4.48920e-01        0.00000e+00        0.00000e+00        0.00000e+00        4.48795e-03 
 73.50        3.83498e+00        -4.53485e-01        0.00000e+00        0.00000e+00        0.00000e+00        4.51591e-03 
 74.20        3.83067e+00        -4.58032e-01        0.00000e+00        0.00000e+00        0.00000e+00        4.54356e-03 
 74.90        3.82632e+00        -4.62561e-01        0.00000e+00        0.00000e+00        0.00000e+00        4.57092e-03 
 75.60        3.82193e+00        -4.67070e-01        0.00000e+00        0.00000e+00        0.00000e+00        4.59797e-03 
 76.30        3.81750e+00        -4.71559e-01        0.00000e+00        0.00000e+00        0.00000e+00        4.62473e-03 
 77.00        3.81303e+00        -4.76029e-01        0.00000e+00        0.00000e+00        0.00000e+00        4.65119e-03 
 77.70        3.80852e+00        -4.80477e-01        0.00000e+00        0.00000e+00        0.00000e+00        4.67735e-03 
 78.40        3.80397e+00        -4.84906e-01        0.00000e+00        0.00000e+00        0.00000e+00        4.70320e-03 
 79.10        3.79938e+00        -4.89312e-01        0.00000e+00        0.00000e+00        0.00000e+00        4.72876e-03 
 79.80        3.79475e+00        -4.93698e-01        0.00000e+00        0.00000e+00        0.00000e+00        4.75403e-03 
 80.50        3.79008e+00        -4.98061e-01        0.00000e+00        0.00000e+00        0.00000e+00        4.77899e-03 
 81.20        3.78538e+00        -5.02402e-01        0.00000e+00        0.00000e+00        0.00000e+00        4.80366e-03 
 81.90        3.78063e+00        -5.06720e-01        0.00000e+00        0.00000e+00        0.00000e+00        4.82802e-03 
 82.60        3.77585e+00        -5.11014e-01        0.00000e+00        0.00000e+00        0.00000e+00        4.85209e-03 
 83.30        3.77102e+00        -5.15286e-01        0.00000e+00        0.00000e+00        0.00000e+00        4.87587e-03 
 84.00        3.76616e+00        -5.19533e-01        0.00000e+00        0.00000e+00        0.00000e+00        4.89934e-03 
 84.70        3.76126e+00        -5.23757e-01        0.00000e+00        0.00000e+00        0.00000e+00        4.92252e-03 
 85.40        3.75632e+00        -5.27956e-01        0.00000e+00        0.00000e+00        0.00000e+00        4.94541e-03 
 86.10        3.75135e+00        -5.32130e-01        0.00000e+00        0.00000e+00        0.00000e+00        4.96800e-03 
 86.80        3.74633e+00        -5.36278e-01        0.00000e+00        0.00000e+00        0.00000e+00        4.99029e-03 
 87.50        3.74128e+00        -5.40402e-01        0.00000e+00        0.00000e+00        0.00000e+00        5.01229e-03 
 88.20        3.73619e+00        -5.44500e-01        0.00000e+00        0.00000e+00        0.00000e+00        5.03400e-03 
 88.90        3.73107e+00        -5.48571e-01        0.00000e+00        0.00000e+00        0.00000e+00        5.05541e-03 
 89.60        3.72590e+00        -5.52617e-01        0.00000e+00        0.00000e+00        0.00000e+00        5.07653e-03 
 90.30        3.72070e+00        -5.56635e-01        0.00000e+00        0.00000e+00        0.00000e+00        5.09736e-03 
 91.00        3.71547e+00        -5.60627e-01        0.00000e+00        0.00000e+00        0.00000e+00        5.11790e-03 
 91.70        3.71019e+00        -5.64592e-01        0.00000e+00        0.00000e+00        0.00000e+00        5.13815e-03 
 92.40        3.70488e+00        -5.68530e-01        0.00000e+00        0.00000e+00        0.00000e+00        5.15810e-03 
 93.10        3.69954e+00        -5.72439e-01        0.00000e+00        0.00000e+00        0.00000e+00        5.17777e-03 
 93.80        3.69416e+00        -5.76321e-01        0.00000e+00        0.00000e+00        0.00000e+00        5.19715e-03 
 94.50        3.68874e+00        -5.80175e-01        0.00000e+00        0.00000e+00        0.00000e+00        5.21624e-03 
 95.20        3.68329e+00        -5.84001e-01        0.00000e+00        0.00000e+00        0.00000e+00        5.23504e-03 
 95.90        3.67781e+00        -5.87798e-01        0.00000e+00        0.00000e+00        0.00000e+00        5.25356e-03 
 96.60        3.67229e+00        -5.91566e-01        0.00000e+00        0.00000e+00        0.00000e+00        5.27179e-03 
 97.30        3.66673e+00        -5.95306e-01        0.00000e+00        0.00000e+00        0.00000e+00        5.28974e-03 
 98.00        3.66115e+00        -5.99016e-01        0.00000e+00        0.00000e+00        0.00000e+00        5.30740e-03 
 98.70        3.65553e+00        -6.02697e-01        0.00000e+00        0.00000e+00        0.00000e+00        5.32478e-03 
 99.40        3.64987e+00        -6.06349e-01        0.00000e+00        0.00000e+00        0.00000e+00        5.34188e-03 
 100.10        3.64419e+00        -6.09971e-01        0.00000e+00        0.00000e+00        0.00000e+00        5.35870e-03 
 100.80        3.63847e+00        -6.13563e-01        0.00000e+00        0.00000e+00        0.00000e+00        5.37524e-03 
 101.50        3.63272e+00        -6.17125e-01        0.00000e+00        0.00000e+00        0.00000e+00        5.39150e-03 
 102.20        3.62693e+00        -6.20657e-01        0.00000e+00        0.00000e+00        0.00000e+00        5.40749e-03 
 102.90        3.62112e+00        -6.24159e-01        0.00000e+00        0.00000e+00        0.00000e+00        5.42319e-03 
 103.60        3.61528e+00        -6.27631e-01        0.00000e+00        0.00000e+00        0.00000e+00        5.43862e-03 
 104.30        3.60940e+00        -6.31072e-01        0.00000e+00        0.00000e+00        0.00000e+00        5.45378e-03 
 105.00        3.60349e+00        -6.34482e-01        0.00000e+00        0.00000e+00        0.00000e+00        5.46866e-03 
 105.70        3.59756e+00        -6.37862e-01        0.00000e+00        0.00000e+00        0.00000e+00        5.48328e-03 
 106.40        3.59159e+00        -6.41210e-01        0.00000e+00        0.00000e+00        0.00000e+00        5.49762e-03 
 107.10        3.58560e+00        -6.44528e-01        0.00000e+00        0.00000e+00        0.00000e+00        5.51169e-03 
 107.80        3.57958e+00        -6.47815e-01        0.00000e+00        0.00000e+00        0.00000e+00        5.52549e-03 
 108.50        3.57352e+00        -6.51071e-01        0.00000e+00        0.00000e+00        0.00000e+00        5.53903e-03 
 109.20        3.56745e+00        -6.54295e-01        0.00000e+00        0.00000e+00        0.00000e+00        5.55230e-03 
 109.90        3.56134e+00        -6.57489e-01        0.00000e+00        0.00000e+00        0.00000e+00        5.56531e-03 
 110.60        3.55521e+00        -6.60651e-01        0.00000e+00        0.00000e+00        0.00000e+00        5.57805e-03 
 111.30        3.54905e+00        -6.63781e-01        0.00000e+00        0.00000e+00        0.00000e+00        5.59053e-03 
 112.00        3.54286e+00        -6.66880e-01        0.00000e+00        0.00000e+00        0.00000e+00        5.60275e-03 
