#Navio B MarAd
#Manobra de Curva Giro
#
#Velocidade Sistema Solidário 
#
#temp           u           v           w    dot roll   dot pitch     dot yaw 
 0.00        4.11000e+00        0.00000e+00        0.00000e+00        0.00000e+00        0.00000e+00        0.00000e+00 
 0.70        4.11000e+00        8.64984e-05        0.00000e+00        0.00000e+00        0.00000e+00        -1.86400e-06 
 1.40        4.11000e+00        1.74827e-04        0.00000e+00        0.00000e+00        0.00000e+00        -3.71374e-06 
 2.10        4.10761e+00        -3.65731e-03        0.00000e+00        0.00000e+00        0.00000e+00        7.82934e-05 
 2.80        4.10522e+00        -7.56679e-03        0.00000e+00        0.00000e+00        0.00000e+00        1.59617e-04 
 3.50        4.10283e+00        -1.15520e-02        0.00000e+00        0.00000e+00        0.00000e+00        2.40268e-04 
 4.20        4.10044e+00        -1.56114e-02        0.00000e+00        0.00000e+00        0.00000e+00        3.20255e-04 
 4.90        4.09806e+00        -1.97434e-02        0.00000e+00        0.00000e+00        0.00000e+00        3.99587e-04 
 5.60        4.09567e+00        -2.39464e-02        0.00000e+00        0.00000e+00        0.00000e+00        4.78274e-04 
 6.30        4.09329e+00        -2.82189e-02        0.00000e+00        0.00000e+00        0.00000e+00        5.56324e-04 
 7.00        4.09090e+00        -3.25593e-02        0.00000e+00        0.00000e+00        0.00000e+00        6.33745e-04 
 7.70        4.08851e+00        -3.69662e-02        0.00000e+00        0.00000e+00        0.00000e+00        7.10546e-04 
 8.40        4.08612e+00        -4.14380e-02        0.00000e+00        0.00000e+00        0.00000e+00        7.86734e-04 
 9.10        4.08372e+00        -4.59733e-02        0.00000e+00        0.00000e+00        0.00000e+00        8.62316e-04 
 9.80        4.08132e+00        -5.05705e-02        0.00000e+00        0.00000e+00        0.00000e+00        9.37300e-04 
 10.50        4.07892e+00        -5.52281e-02        0.00000e+00        0.00000e+00        0.00000e+00        1.01169e-03 
 11.20        4.07651e+00        -5.99448e-02        0.00000e+00        0.00000e+00        0.00000e+00        1.08550e-03 
 11.90        4.07409e+00        -6.47190e-02        0.00000e+00        0.00000e+00        0.00000e+00        1.15873e-03 
 12.60        4.07166e+00        -6.95493e-02        0.00000e+00        0.00000e+00        0.00000e+00        1.23138e-03 
 13.30        4.06923e+00        -7.44342e-02        0.00000e+00        0.00000e+00        0.00000e+00        1.30347e-03 
 14.00        4.06679e+00        -7.93724e-02        0.00000e+00        0.00000e+00        0.00000e+00        1.37500e-03 
 14.70        4.06433e+00        -8.43623e-02        0.00000e+00        0.00000e+00        0.00000e+00        1.44597e-03 
 15.40        4.06187e+00        -8.94027e-02        0.00000e+00        0.00000e+00        0.00000e+00        1.51639e-03 
 16.10        4.05939e+00        -9.44920e-02        0.00000e+00        0.00000e+00        0.00000e+00        1.58626e-03 
 16.80        4.05691e+00        -9.96289e-02        0.00000e+00        0.00000e+00        0.00000e+00        1.65560e-03 
 17.50        4.05441e+00        -1.04812e-01        0.00000e+00        0.00000e+00        0.00000e+00        1.72439e-03 
 18.20        4.05189e+00        -1.10040e-01        0.00000e+00        0.00000e+00        0.00000e+00        1.79265e-03 
 18.90        4.04936e+00        -1.15312e-01        0.00000e+00        0.00000e+00        0.00000e+00        1.86039e-03 
 19.60        4.04682e+00        -1.20625e-01        0.00000e+00        0.00000e+00        0.00000e+00        1.92759e-03 
 20.30        4.04426e+00        -1.25979e-01        0.00000e+00        0.00000e+00        0.00000e+00        1.99428e-03 
 21.00        4.04168e+00        -1.31373e-01        0.00000e+00        0.00000e+00        0.00000e+00        2.06045e-03 
 21.70        4.03909e+00        -1.36805e-01        0.00000e+00        0.00000e+00        0.00000e+00        2.12610e-03 
 22.40        4.03647e+00        -1.42273e-01        0.00000e+00        0.00000e+00        0.00000e+00        2.19124e-03 
 23.10        4.03384e+00        -1.47777e-01        0.00000e+00        0.00000e+00        0.00000e+00        2.25588e-03 
 23.80        4.03119e+00        -1.53316e-01        0.00000e+00        0.00000e+00        0.00000e+00        2.32000e-03 
 24.50        4.02852e+00        -1.58886e-01        0.00000e+00        0.00000e+00        0.00000e+00        2.38363e-03 
 25.20        4.02582e+00        -1.64489e-01        0.00000e+00        0.00000e+00        0.00000e+00        2.44675e-03 
 25.90        4.02310e+00        -1.70122e-01        0.00000e+00        0.00000e+00        0.00000e+00        2.50938e-03 
 26.60        4.02037e+00        -1.75783e-01        0.00000e+00        0.00000e+00        0.00000e+00        2.57150e-03 
 27.30        4.01760e+00        -1.81473e-01        0.00000e+00        0.00000e+00        0.00000e+00        2.63314e-03 
 28.00        4.01482e+00        -1.87188e-01        0.00000e+00        0.00000e+00        0.00000e+00        2.69428e-03 
 28.70        4.01200e+00        -1.92929e-01        0.00000e+00        0.00000e+00        0.00000e+00        2.75493e-03 
 29.40        4.00917e+00        -1.98694e-01        0.00000e+00        0.00000e+00        0.00000e+00        2.81509e-03 
 30.10        4.00630e+00        -2.04482e-01        0.00000e+00        0.00000e+00        0.00000e+00        2.87477e-03 
 30.80        4.00341e+00        -2.10291e-01        0.00000e+00        0.00000e+00        0.00000e+00        2.93396e-03 
 31.50        4.00049e+00        -2.16120e-01        0.00000e+00        0.00000e+00        0.00000e+00        2.99267e-03 
 32.20        3.99755e+00        -2.21968e-01        0.00000e+00        0.00000e+00        0.00000e+00        3.05089e-03 
 32.90        3.99457e+00        -2.27835e-01        0.00000e+00        0.00000e+00        0.00000e+00        3.10863e-03 
 33.60        3.99157e+00        -2.33718e-01        0.00000e+00        0.00000e+00        0.00000e+00        3.16590e-03 
 34.30        3.98853e+00        -2.39616e-01        0.00000e+00        0.00000e+00        0.00000e+00        3.22268e-03 
 35.00        3.98547e+00        -2.45529e-01        0.00000e+00        0.00000e+00        0.00000e+00        3.27898e-03 
 35.70        3.98237e+00        -2.51454e-01        0.00000e+00        0.00000e+00        0.00000e+00        3.33481e-03 
 36.40        3.97924e+00        -2.57392e-01        0.00000e+00        0.00000e+00        0.00000e+00        3.39016e-03 
 37.10        3.97608e+00        -2.63341e-01        0.00000e+00        0.00000e+00        0.00000e+00        3.44503e-03 
 37.80        3.97288e+00        -2.69299e-01        0.00000e+00        0.00000e+00        0.00000e+00        3.49943e-03 
 38.50        3.96966e+00        -2.75266e-01        0.00000e+00        0.00000e+00        0.00000e+00        3.55336e-03 
 39.20        3.96639e+00        -2.81240e-01        0.00000e+00        0.00000e+00        0.00000e+00        3.60681e-03 
 39.90        3.96310e+00        -2.87221e-01        0.00000e+00        0.00000e+00        0.00000e+00        3.65979e-03 
 40.60        3.95977e+00        -2.93207e-01        0.00000e+00        0.00000e+00        0.00000e+00        3.71229e-03 
 41.30        3.95640e+00        -2.99197e-01        0.00000e+00        0.00000e+00        0.00000e+00        3.76433e-03 
 42.00        3.95299e+00        -3.05190e-01        0.00000e+00        0.00000e+00        0.00000e+00        3.81589e-03 
 42.70        3.94955e+00        -3.11185e-01        0.00000e+00        0.00000e+00        0.00000e+00        3.86698e-03 
 43.40        3.94608e+00        -3.17181e-01        0.00000e+00        0.00000e+00        0.00000e+00        3.91760e-03 
 44.10        3.94256e+00        -3.23177e-01        0.00000e+00        0.00000e+00        0.00000e+00        3.96775e-03 
 44.80        3.93901e+00        -3.29172e-01        0.00000e+00        0.00000e+00        0.00000e+00        4.01742e-03 
 45.50        3.93542e+00        -3.35165e-01        0.00000e+00        0.00000e+00        0.00000e+00        4.06663e-03 
 46.20        3.93179e+00        -3.41155e-01        0.00000e+00        0.00000e+00        0.00000e+00        4.11537e-03 
 46.90        3.92812e+00        -3.47140e-01        0.00000e+00        0.00000e+00        0.00000e+00        4.16364e-03 
 47.60        3.92441e+00        -3.53121e-01        0.00000e+00        0.00000e+00        0.00000e+00        4.21144e-03 
 48.30        3.92067e+00        -3.59095e-01        0.00000e+00        0.00000e+00        0.00000e+00        4.25877e-03 
 49.00        3.91688e+00        -3.65062e-01        0.00000e+00        0.00000e+00        0.00000e+00        4.30563e-03 
 49.70        3.91305e+00        -3.71021e-01        0.00000e+00        0.00000e+00        0.00000e+00        4.35202e-03 
 50.40        3.90918e+00        -3.76972e-01        0.00000e+00        0.00000e+00        0.00000e+00        4.39795e-03 
 51.10        3.90527e+00        -3.82912e-01        0.00000e+00        0.00000e+00        0.00000e+00        4.44341e-03 
 51.80        3.90132e+00        -3.88842e-01        0.00000e+00        0.00000e+00        0.00000e+00        4.48840e-03 
 52.50        3.89733e+00        -3.94759e-01        0.00000e+00        0.00000e+00        0.00000e+00        4.53292e-03 
 53.20        3.89330e+00        -4.00665e-01        0.00000e+00        0.00000e+00        0.00000e+00        4.57697e-03 
 53.90        3.88922e+00        -4.06556e-01        0.00000e+00        0.00000e+00        0.00000e+00        4.62056e-03 
 54.60        3.88510e+00        -4.12434e-01        0.00000e+00        0.00000e+00        0.00000e+00        4.66368e-03 
 55.30        3.88094e+00        -4.18296e-01        0.00000e+00        0.00000e+00        0.00000e+00        4.70633e-03 
 56.00        3.87674e+00        -4.24142e-01        0.00000e+00        0.00000e+00        0.00000e+00        4.74852e-03 
 56.70        3.87249e+00        -4.29971e-01        0.00000e+00        0.00000e+00        0.00000e+00        4.79024e-03 
 57.40        3.86820e+00        -4.35783e-01        0.00000e+00        0.00000e+00        0.00000e+00        4.83150e-03 
 58.10        3.86387e+00        -4.41576e-01        0.00000e+00        0.00000e+00        0.00000e+00        4.87229e-03 
 58.80        3.85950e+00        -4.47349e-01        0.00000e+00        0.00000e+00        0.00000e+00        4.91262e-03 
 59.50        3.85508e+00        -4.53103e-01        0.00000e+00        0.00000e+00        0.00000e+00        4.95248e-03 
 60.20        3.85062e+00        -4.58836e-01        0.00000e+00        0.00000e+00        0.00000e+00        4.99188e-03 
 60.90        3.84611e+00        -4.64547e-01        0.00000e+00        0.00000e+00        0.00000e+00        5.03082e-03 
 61.60        3.84156e+00        -4.70236e-01        0.00000e+00        0.00000e+00        0.00000e+00        5.06929e-03 
 62.30        3.83697e+00        -4.75902e-01        0.00000e+00        0.00000e+00        0.00000e+00        5.10731e-03 
 63.00        3.83234e+00        -4.81544e-01        0.00000e+00        0.00000e+00        0.00000e+00        5.14486e-03 
 63.70        3.82766e+00        -4.87161e-01        0.00000e+00        0.00000e+00        0.00000e+00        5.18194e-03 
 64.40        3.82293e+00        -4.92754e-01        0.00000e+00        0.00000e+00        0.00000e+00        5.21857e-03 
 65.10        3.81817e+00        -4.98320e-01        0.00000e+00        0.00000e+00        0.00000e+00        5.25474e-03 
 65.80        3.81336e+00        -5.03860e-01        0.00000e+00        0.00000e+00        0.00000e+00        5.29045e-03 
 66.50        3.80850e+00        -5.09373e-01        0.00000e+00        0.00000e+00        0.00000e+00        5.32571e-03 
 67.20        3.80361e+00        -5.14859e-01        0.00000e+00        0.00000e+00        0.00000e+00        5.36050e-03 
 67.90        3.79867e+00        -5.20316e-01        0.00000e+00        0.00000e+00        0.00000e+00        5.39484e-03 
 68.60        3.79369e+00        -5.25744e-01        0.00000e+00        0.00000e+00        0.00000e+00        5.42873e-03 
 69.30        3.78866e+00        -5.31142e-01        0.00000e+00        0.00000e+00        0.00000e+00        5.46216e-03 
 70.00        3.78359e+00        -5.36511e-01        0.00000e+00        0.00000e+00        0.00000e+00        5.49513e-03 
 70.70        3.77848e+00        -5.41848e-01        0.00000e+00        0.00000e+00        0.00000e+00        5.52766e-03 
 71.40        3.77332e+00        -5.47155e-01        0.00000e+00        0.00000e+00        0.00000e+00        5.55973e-03 
 72.10        3.76812e+00        -5.52429e-01        0.00000e+00        0.00000e+00        0.00000e+00        5.59135e-03 
 72.80        3.76288e+00        -5.57672e-01        0.00000e+00        0.00000e+00        0.00000e+00        5.62252e-03 
 73.50        3.75760e+00        -5.62882e-01        0.00000e+00        0.00000e+00        0.00000e+00        5.65325e-03 
 74.20        3.75228e+00        -5.68058e-01        0.00000e+00        0.00000e+00        0.00000e+00        5.68353e-03 
 74.90        3.74691e+00        -5.73201e-01        0.00000e+00        0.00000e+00        0.00000e+00        5.71336e-03 
 75.60        3.74150e+00        -5.78309e-01        0.00000e+00        0.00000e+00        0.00000e+00        5.74275e-03 
 76.30        3.73605e+00        -5.83383e-01        0.00000e+00        0.00000e+00        0.00000e+00        5.77170e-03 
 77.00        3.73056e+00        -5.88422e-01        0.00000e+00        0.00000e+00        0.00000e+00        5.80020e-03 
 77.70        3.72503e+00        -5.93425e-01        0.00000e+00        0.00000e+00        0.00000e+00        5.82827e-03 
 78.40        3.71946e+00        -5.98392e-01        0.00000e+00        0.00000e+00        0.00000e+00        5.85590e-03 
 79.10        3.71385e+00        -6.03323e-01        0.00000e+00        0.00000e+00        0.00000e+00        5.88309e-03 
 79.80        3.70820e+00        -6.08218e-01        0.00000e+00        0.00000e+00        0.00000e+00        5.90985e-03 
 80.50        3.70250e+00        -6.13075e-01        0.00000e+00        0.00000e+00        0.00000e+00        5.93617e-03 
 81.20        3.69677e+00        -6.17895e-01        0.00000e+00        0.00000e+00        0.00000e+00        5.96206e-03 
 81.90        3.69100e+00        -6.22677e-01        0.00000e+00        0.00000e+00        0.00000e+00        5.98752e-03 
 82.60        3.68519e+00        -6.27421e-01        0.00000e+00        0.00000e+00        0.00000e+00        6.01256e-03 
 83.30        3.67934e+00        -6.32127e-01        0.00000e+00        0.00000e+00        0.00000e+00        6.03716e-03 
 84.00        3.67346e+00        -6.36794e-01        0.00000e+00        0.00000e+00        0.00000e+00        6.06135e-03 
 84.70        3.66753e+00        -6.41421e-01        0.00000e+00        0.00000e+00        0.00000e+00        6.08511e-03 
 85.40        3.66157e+00        -6.46010e-01        0.00000e+00        0.00000e+00        0.00000e+00        6.10845e-03 
 86.10        3.65557e+00        -6.50559e-01        0.00000e+00        0.00000e+00        0.00000e+00        6.13137e-03 
 86.80        3.64953e+00        -6.55068e-01        0.00000e+00        0.00000e+00        0.00000e+00        6.15388e-03 
 87.50        3.64346e+00        -6.59538e-01        0.00000e+00        0.00000e+00        0.00000e+00        6.17597e-03 
 88.20        3.63736e+00        -6.63967e-01        0.00000e+00        0.00000e+00        0.00000e+00        6.19765e-03 
 88.90        3.63121e+00        -6.68355e-01        0.00000e+00        0.00000e+00        0.00000e+00        6.21892e-03 
 89.60        3.62503e+00        -6.72703e-01        0.00000e+00        0.00000e+00        0.00000e+00        6.23979e-03 
 90.30        3.61882e+00        -6.77010e-01        0.00000e+00        0.00000e+00        0.00000e+00        6.26024e-03 
 91.00        3.61257e+00        -6.81276e-01        0.00000e+00        0.00000e+00        0.00000e+00        6.28030e-03 
 91.70        3.60629e+00        -6.85501e-01        0.00000e+00        0.00000e+00        0.00000e+00        6.29995e-03 
 92.40        3.59998e+00        -6.89684e-01        0.00000e+00        0.00000e+00        0.00000e+00        6.31921e-03 
 93.10        3.59363e+00        -6.93826e-01        0.00000e+00        0.00000e+00        0.00000e+00        6.33806e-03 
 93.80        3.58725e+00        -6.97926e-01        0.00000e+00        0.00000e+00        0.00000e+00        6.35653e-03 
 94.50        3.58084e+00        -7.01985e-01        0.00000e+00        0.00000e+00        0.00000e+00        6.37460e-03 
 95.20        3.57439e+00        -7.06001e-01        0.00000e+00        0.00000e+00        0.00000e+00        6.39229e-03 
 95.90        3.56792e+00        -7.09976e-01        0.00000e+00        0.00000e+00        0.00000e+00        6.40959e-03 
 96.60        3.56142e+00        -7.13908e-01        0.00000e+00        0.00000e+00        0.00000e+00        6.42651e-03 
 97.30        3.55488e+00        -7.17799e-01        0.00000e+00        0.00000e+00        0.00000e+00        6.44304e-03 
 98.00        3.54832e+00        -7.21647e-01        0.00000e+00        0.00000e+00        0.00000e+00        6.45920e-03 
 98.70        3.54172e+00        -7.25452e-01        0.00000e+00        0.00000e+00        0.00000e+00        6.47498e-03 
 99.40        3.53510e+00        -7.29216e-01        0.00000e+00        0.00000e+00        0.00000e+00        6.49039e-03 
 100.10        3.52845e+00        -7.32937e-01        0.00000e+00        0.00000e+00        0.00000e+00        6.50543e-03 
 100.80        3.52177e+00        -7.36616e-01        0.00000e+00        0.00000e+00        0.00000e+00        6.52010e-03 
 101.50        3.51507e+00        -7.40252e-01        0.00000e+00        0.00000e+00        0.00000e+00        6.53440e-03 
 102.20        3.50833e+00        -7.43846e-01        0.00000e+00        0.00000e+00        0.00000e+00        6.54835e-03 
 102.90        3.50157e+00        -7.47397e-01        0.00000e+00        0.00000e+00        0.00000e+00        6.56193e-03 
 103.60        3.49479e+00        -7.50906e-01        0.00000e+00        0.00000e+00        0.00000e+00        6.57516e-03 
 104.30        3.48798e+00        -7.54373e-01        0.00000e+00        0.00000e+00        0.00000e+00        6.58804e-03 
 105.00        3.48115e+00        -7.57797e-01        0.00000e+00        0.00000e+00        0.00000e+00        6.60056e-03 
 105.70        3.47429e+00        -7.61179e-01        0.00000e+00        0.00000e+00        0.00000e+00        6.61274e-03 
 106.40        3.46741e+00        -7.64518e-01        0.00000e+00        0.00000e+00        0.00000e+00        6.62457e-03 
 107.10        3.46051e+00        -7.67815e-01        0.00000e+00        0.00000e+00        0.00000e+00        6.63606e-03 
 107.80        3.45358e+00        -7.71070e-01        0.00000e+00        0.00000e+00        0.00000e+00        6.64722e-03 
 108.50        3.44663e+00        -7.74283e-01        0.00000e+00        0.00000e+00        0.00000e+00        6.65803e-03 
 109.20        3.43966e+00        -7.77454e-01        0.00000e+00        0.00000e+00        0.00000e+00        6.66852e-03 
 109.90        3.43267e+00        -7.80583e-01        0.00000e+00        0.00000e+00        0.00000e+00        6.67867e-03 
 110.60        3.42566e+00        -7.83670e-01        0.00000e+00        0.00000e+00        0.00000e+00        6.68850e-03 
 111.30        3.41863e+00        -7.86715e-01        0.00000e+00        0.00000e+00        0.00000e+00        6.69800e-03 
 112.00        3.41158e+00        -7.89719e-01        0.00000e+00        0.00000e+00        0.00000e+00        6.70718e-03 
