#Navio B MarAd
#Manobra de Curva Giro
#
#Velocidade Inercial
#
#temp           u           v           r
 0.00        4.11000e+00        0.00000e+00        0.00000e+00 
 0.70        4.11000e+00        8.40219e-05        0.00000e+00 
 1.40        4.11000e+00        1.64950e-04        0.00000e+00 
 2.10        4.10816e+00        -2.68890e-03        0.00000e+00 
 2.80        4.10632e+00        -5.43709e-03        0.00000e+00 
 3.50        4.10448e+00        -8.08026e-03        0.00000e+00 
 4.20        4.10265e+00        -1.06191e-02        0.00000e+00 
 4.90        4.10082e+00        -1.30541e-02        0.00000e+00 
 5.60        4.09899e+00        -1.53859e-02        0.00000e+00 
 6.30        4.09716e+00        -1.76150e-02        0.00000e+00 
 7.00        4.09534e+00        -1.97421e-02        0.00000e+00 
 7.70        4.09352e+00        -2.17676e-02        0.00000e+00 
 8.40        4.09170e+00        -2.36921e-02        0.00000e+00 
 9.10        4.08988e+00        -2.55161e-02        0.00000e+00 
 9.80        4.08806e+00        -2.72401e-02        0.00000e+00 
 10.50        4.08624e+00        -2.88644e-02        0.00000e+00 
 11.20        4.08443e+00        -3.03897e-02        0.00000e+00 
 11.90        4.08261e+00        -3.18163e-02        0.00000e+00 
 12.60        4.08080e+00        -3.31447e-02        0.00000e+00 
 13.30        4.07898e+00        -3.43753e-02        0.00000e+00 
 14.00        4.07717e+00        -3.55084e-02        0.00000e+00 
 14.70        4.07535e+00        -3.65446e-02        0.00000e+00 
 15.40        4.07354e+00        -3.74842e-02        0.00000e+00 
 16.10        4.07172e+00        -3.83276e-02        0.00000e+00 
 16.80        4.06991e+00        -3.90751e-02        0.00000e+00 
 17.50        4.06809e+00        -3.97271e-02        0.00000e+00 
 18.20        4.06627e+00        -4.02840e-02        0.00000e+00 
 18.90        4.06445e+00        -4.07461e-02        0.00000e+00 
 19.60        4.06262e+00        -4.11138e-02        0.00000e+00 
 20.30        4.06080e+00        -4.13873e-02        0.00000e+00 
 21.00        4.05897e+00        -4.15671e-02        0.00000e+00 
 21.70        4.05713e+00        -4.16534e-02        0.00000e+00 
 22.40        4.05530e+00        -4.16465e-02        0.00000e+00 
 23.10        4.05346e+00        -4.15468e-02        0.00000e+00 
 23.80        4.05161e+00        -4.13546e-02        0.00000e+00 
 24.50        4.04976e+00        -4.10701e-02        0.00000e+00 
 25.20        4.04791e+00        -4.06938e-02        0.00000e+00 
 25.90        4.04605e+00        -4.02257e-02        0.00000e+00 
 26.60        4.04418e+00        -3.96664e-02        0.00000e+00 
 27.30        4.04231e+00        -3.90160e-02        0.00000e+00 
 28.00        4.04043e+00        -3.82748e-02        0.00000e+00 
 28.70        4.03854e+00        -3.74432e-02        0.00000e+00 
 29.40        4.03665e+00        -3.65215e-02        0.00000e+00 
 30.10        4.03475e+00        -3.55098e-02        0.00000e+00 
 30.80        4.03284e+00        -3.44085e-02        0.00000e+00 
 31.50        4.03092e+00        -3.32179e-02        0.00000e+00 
 32.20        4.02899e+00        -3.19383e-02        0.00000e+00 
 32.90        4.02705e+00        -3.05700e-02        0.00000e+00 
 33.60        4.02510e+00        -2.91132e-02        0.00000e+00 
 34.30        4.02314e+00        -2.75683e-02        0.00000e+00 
 35.00        4.02118e+00        -2.59356e-02        0.00000e+00 
 35.70        4.01919e+00        -2.42152e-02        0.00000e+00 
 36.40        4.01720e+00        -2.24077e-02        0.00000e+00 
 37.10        4.01520e+00        -2.05132e-02        0.00000e+00 
 37.80        4.01318e+00        -1.85320e-02        0.00000e+00 
 38.50        4.01114e+00        -1.64645e-02        0.00000e+00 
 39.20        4.00910e+00        -1.43110e-02        0.00000e+00 
 39.90        4.00704e+00        -1.20718e-02        0.00000e+00 
 40.60        4.00496e+00        -9.74726e-03        0.00000e+00 
 41.30        4.00287e+00        -7.33765e-03        0.00000e+00 
 42.00        4.00077e+00        -4.84332e-03        0.00000e+00 
 42.70        3.99865e+00        -2.26461e-03        0.00000e+00 
 43.40        3.99651e+00        3.98126e-04        0.00000e+00 
 44.10        3.99435e+00        3.14454e-03        0.00000e+00 
 44.80        3.99218e+00        5.97429e-03        0.00000e+00 
 45.50        3.98999e+00        8.88700e-03        0.00000e+00 
 46.20        3.98777e+00        1.18823e-02        0.00000e+00 
 46.90        3.98554e+00        1.49599e-02        0.00000e+00 
 47.60        3.98330e+00        1.81192e-02        0.00000e+00 
 48.30        3.98103e+00        2.13601e-02        0.00000e+00 
 49.00        3.97874e+00        2.46820e-02        0.00000e+00 
 49.70        3.97642e+00        2.80845e-02        0.00000e+00 
 50.40        3.97409e+00        3.15673e-02        0.00000e+00 
 51.10        3.97174e+00        3.51300e-02        0.00000e+00 
 51.80        3.96936e+00        3.87720e-02        0.00000e+00 
 52.50        3.96696e+00        4.24930e-02        0.00000e+00 
 53.20        3.96453e+00        4.62926e-02        0.00000e+00 
 53.90        3.96209e+00        5.01703e-02        0.00000e+00 
 54.60        3.95961e+00        5.41256e-02        0.00000e+00 
 55.30        3.95711e+00        5.81580e-02        0.00000e+00 
 56.00        3.95459e+00        6.22672e-02        0.00000e+00 
 56.70        3.95204e+00        6.64525e-02        0.00000e+00 
 57.40        3.94946e+00        7.07136e-02        0.00000e+00 
 58.10        3.94686e+00        7.50499e-02        0.00000e+00 
 58.80        3.94423e+00        7.94610e-02        0.00000e+00 
 59.50        3.94157e+00        8.39462e-02        0.00000e+00 
 60.20        3.93889e+00        8.85052e-02        0.00000e+00 
 60.90        3.93617e+00        9.31372e-02        0.00000e+00 
 61.60        3.93343e+00        9.78419e-02        0.00000e+00 
 62.30        3.93065e+00        1.02619e-01        0.00000e+00 
 63.00        3.92785e+00        1.07467e-01        0.00000e+00 
 63.70        3.92501e+00        1.12386e-01        0.00000e+00 
 64.40        3.92214e+00        1.17376e-01        0.00000e+00 
 65.10        3.91925e+00        1.22435e-01        0.00000e+00 
 65.80        3.91632e+00        1.27564e-01        0.00000e+00 
 66.50        3.91335e+00        1.32761e-01        0.00000e+00 
 67.20        3.91036e+00        1.38026e-01        0.00000e+00 
 67.90        3.90733e+00        1.43358e-01        0.00000e+00 
 68.60        3.90427e+00        1.48757e-01        0.00000e+00 
 69.30        3.90117e+00        1.54223e-01        0.00000e+00 
 70.00        3.89804e+00        1.59753e-01        0.00000e+00 
 70.70        3.89487e+00        1.65349e-01        0.00000e+00 
 71.40        3.89167e+00        1.71008e-01        0.00000e+00 
 72.10        3.88844e+00        1.76731e-01        0.00000e+00 
 72.80        3.88516e+00        1.82517e-01        0.00000e+00 
 73.50        3.88185e+00        1.88365e-01        0.00000e+00 
 74.20        3.87851e+00        1.94275e-01        0.00000e+00 
 74.90        3.87512e+00        2.00245e-01        0.00000e+00 
 75.60        3.87170e+00        2.06275e-01        0.00000e+00 
 76.30        3.86824e+00        2.12365e-01        0.00000e+00 
 77.00        3.86474e+00        2.18513e-01        0.00000e+00 
 77.70        3.86121e+00        2.24719e-01        0.00000e+00 
 78.40        3.85763e+00        2.30982e-01        0.00000e+00 
 79.10        3.85402e+00        2.37301e-01        0.00000e+00 
 79.80        3.85036e+00        2.43676e-01        0.00000e+00 
 80.50        3.84667e+00        2.50106e-01        0.00000e+00 
 81.20        3.84294e+00        2.56591e-01        0.00000e+00 
 81.90        3.83916e+00        2.63128e-01        0.00000e+00 
 82.60        3.83535e+00        2.69718e-01        0.00000e+00 
 83.30        3.83149e+00        2.76360e-01        0.00000e+00 
 84.00        3.82759e+00        2.83053e-01        0.00000e+00 
 84.70        3.82365e+00        2.89796e-01        0.00000e+00 
 85.40        3.81967e+00        2.96588e-01        0.00000e+00 
 86.10        3.81565e+00        3.03430e-01        0.00000e+00 
 86.80        3.81158e+00        3.10319e-01        0.00000e+00 
 87.50        3.80747e+00        3.17255e-01        0.00000e+00 
 88.20        3.80332e+00        3.24237e-01        0.00000e+00 
 88.90        3.79912e+00        3.31264e-01        0.00000e+00 
 89.60        3.79489e+00        3.38337e-01        0.00000e+00 
 90.30        3.79061e+00        3.45452e-01        0.00000e+00 
 91.00        3.78628e+00        3.52611e-01        0.00000e+00 
 91.70        3.78191e+00        3.59812e-01        0.00000e+00 
 92.40        3.77750e+00        3.67054e-01        0.00000e+00 
 93.10        3.77304e+00        3.74337e-01        0.00000e+00 
 93.80        3.76854e+00        3.81659e-01        0.00000e+00 
 94.50        3.76400e+00        3.89020e-01        0.00000e+00 
 95.20        3.75940e+00        3.96418e-01        0.00000e+00 
 95.90        3.75477e+00        4.03854e-01        0.00000e+00 
 96.60        3.75009e+00        4.11326e-01        0.00000e+00 
 97.30        3.74537e+00        4.18833e-01        0.00000e+00 
 98.00        3.74060e+00        4.26375e-01        0.00000e+00 
 98.70        3.73578e+00        4.33950e-01        0.00000e+00 
 99.40        3.73092e+00        4.41558e-01        0.00000e+00 
 100.10        3.72601e+00        4.49198e-01        0.00000e+00 
 100.80        3.72106e+00        4.56869e-01        0.00000e+00 
 101.50        3.71607e+00        4.64570e-01        0.00000e+00 
 102.20        3.71103e+00        4.72300e-01        0.00000e+00 
 102.90        3.70594e+00        4.80059e-01        0.00000e+00 
 103.60        3.70081e+00        4.87845e-01        0.00000e+00 
 104.30        3.69563e+00        4.95658e-01        0.00000e+00 
 105.00        3.69040e+00        5.03497e-01        0.00000e+00 
 105.70        3.68513e+00        5.11361e-01        0.00000e+00 
 106.40        3.67982e+00        5.19249e-01        0.00000e+00 
 107.10        3.67446e+00        5.27161e-01        0.00000e+00 
 107.80        3.66905e+00        5.35094e-01        0.00000e+00 
 108.50        3.66360e+00        5.43050e-01        0.00000e+00 
 109.20        3.65810e+00        5.51026e-01        0.00000e+00 
 109.90        3.65256e+00        5.59022e-01        0.00000e+00 
 110.60        3.64697e+00        5.67037e-01        0.00000e+00 
 111.30        3.64134e+00        5.75070e-01        0.00000e+00 
 112.00        3.63566e+00        5.83121e-01        0.00000e+00 
 112.70        3.62994e+00        5.91188e-01        0.00000e+00 
 113.40        3.62417e+00        5.99270e-01        0.00000e+00 
 114.10        3.61836e+00        6.07368e-01        0.00000e+00 
 114.80        3.61250e+00        6.15480e-01        0.00000e+00 
 115.50        3.60660e+00        6.23604e-01        0.00000e+00 
 116.20        3.60065e+00        6.31742e-01        0.00000e+00 
 116.90        3.59466e+00        6.39890e-01        0.00000e+00 
 117.60        3.58862e+00        6.48050e-01        0.00000e+00 
 118.30        3.58255e+00        6.56219e-01        0.00000e+00 
 119.00        3.57642e+00        6.64397e-01        0.00000e+00 
 119.70        3.57025e+00        6.72584e-01        0.00000e+00 
 120.40        3.56404e+00        6.80778e-01        0.00000e+00 
 121.10        3.55779e+00        6.88979e-01        0.00000e+00 
 121.80        3.55149e+00        6.97186e-01        0.00000e+00 
 122.50        3.54515e+00        7.05398e-01        0.00000e+00 
 123.20        3.53877e+00        7.13614e-01        0.00000e+00 
 123.90        3.53234e+00        7.21834e-01        0.00000e+00 
 124.60        3.52587e+00        7.30057e-01        0.00000e+00 
 125.30        3.51936e+00        7.38282e-01        0.00000e+00 
 126.00        3.51281e+00        7.46508e-01        0.00000e+00 
 126.70        3.50621e+00        7.54735e-01        0.00000e+00 
 127.40        3.49957e+00        7.62961e-01        0.00000e+00 
 128.10        3.49290e+00        7.71187e-01        0.00000e+00 
 128.80        3.48618e+00        7.79411e-01        0.00000e+00 
 129.50        3.47942e+00        7.87632e-01        0.00000e+00 
 130.20        3.47262e+00        7.95851e-01        0.00000e+00 
 130.90        3.46578e+00        8.04065e-01        0.00000e+00 
 131.60        3.45890e+00        8.12275e-01        0.00000e+00 
 132.30        3.45198e+00        8.20480e-01        0.00000e+00 
 133.00        3.44502e+00        8.28679e-01        0.00000e+00 
 133.70        3.43802e+00        8.36872e-01        0.00000e+00 
 134.40        3.43098e+00        8.45057e-01        0.00000e+00 
 135.10        3.42391e+00        8.53234e-01        0.00000e+00 
 135.80        3.41679e+00        8.61403e-01        0.00000e+00 
 136.50        3.40964e+00        8.69563e-01        0.00000e+00 
 137.20        3.40245e+00        8.77712e-01        0.00000e+00 
 137.90        3.39523e+00        8.85851e-01        0.00000e+00 
 138.60        3.38796e+00        8.93979e-01        0.00000e+00 
 139.30        3.38066e+00        9.02095e-01        0.00000e+00 
 140.00        3.37333e+00        9.10199e-01        0.00000e+00 
 140.70        3.36596e+00        9.18289e-01        0.00000e+00 
 141.40        3.35855e+00        9.26366e-01        0.00000e+00 
 142.10        3.35111e+00        9.34429e-01        0.00000e+00 
 142.80        3.34363e+00        9.42477e-01        0.00000e+00 
 143.50        3.33612e+00        9.50510e-01        0.00000e+00 
 144.20        3.32857e+00        9.58526e-01        0.00000e+00 
 144.90        3.32099e+00        9.66527e-01        0.00000e+00 
 145.60        3.31337e+00        9.74510e-01        0.00000e+00 
 146.30        3.30573e+00        9.82475e-01        0.00000e+00 
 147.00        3.29805e+00        9.90422e-01        0.00000e+00 
 147.70        3.29034e+00        9.98351e-01        0.00000e+00 
 148.40        3.28259e+00        1.00626e+00        0.00000e+00 
 149.10        3.27482e+00        1.01415e+00        0.00000e+00 
 149.80        3.26701e+00        1.02202e+00        0.00000e+00 
 150.50        3.25917e+00        1.02987e+00        0.00000e+00 
 151.20        3.25130e+00        1.03770e+00        0.00000e+00 
 151.90        3.24341e+00        1.04550e+00        0.00000e+00 
 152.60        3.23548e+00        1.05328e+00        0.00000e+00 
 153.30        3.22752e+00        1.06105e+00        0.00000e+00 
 154.00        3.21954e+00        1.06878e+00        0.00000e+00 
 154.70        3.21152e+00        1.07650e+00        0.00000e+00 
 155.40        3.20348e+00        1.08419e+00        0.00000e+00 
 156.10        3.19541e+00        1.09185e+00        0.00000e+00 
 156.80        3.18731e+00        1.09949e+00        0.00000e+00 
 157.50        3.17919e+00        1.10711e+00        0.00000e+00 
 158.20        3.17103e+00        1.11470e+00        0.00000e+00 
 158.90        3.16286e+00        1.12226e+00        0.00000e+00 
 159.60        3.15465e+00        1.12980e+00        0.00000e+00 
 160.30        3.14643e+00        1.13731e+00        0.00000e+00 
 161.00        3.13817e+00        1.14479e+00        0.00000e+00 
 161.70        3.12989e+00        1.15225e+00        0.00000e+00 
 162.40        3.12159e+00        1.15968e+00        0.00000e+00 
 163.10        3.11327e+00        1.16708e+00        0.00000e+00 
 163.80        3.10492e+00        1.17445e+00        0.00000e+00 
 164.50        3.09655e+00        1.18179e+00        0.00000e+00 
 165.20        3.08815e+00        1.18910e+00        0.00000e+00 
 165.90        3.07974e+00        1.19638e+00        0.00000e+00 
 166.60        3.07130e+00        1.20363e+00        0.00000e+00 
 167.30        3.06284e+00        1.21086e+00        0.00000e+00 
 168.00        3.05436e+00        1.21805e+00        0.00000e+00 
 168.70        3.04586e+00        1.22521e+00        0.00000e+00 
 169.40        3.03733e+00        1.23234e+00        0.00000e+00 
 170.10        3.02879e+00        1.23944e+00        0.00000e+00 
 170.80        3.02023e+00        1.24650e+00        0.00000e+00 
 171.50        3.01165e+00        1.25353e+00        0.00000e+00 
 172.20        3.00306e+00        1.26054e+00        0.00000e+00 
 172.90        2.99444e+00        1.26751e+00        0.00000e+00 
 173.60        2.98581e+00        1.27444e+00        0.00000e+00 
 174.30        2.97716e+00        1.28134e+00        0.00000e+00 
 175.00        2.96849e+00        1.28821e+00        0.00000e+00 
 175.70        2.95980e+00        1.29505e+00        0.00000e+00 
 176.40        2.95110e+00        1.30185e+00        0.00000e+00 
 177.10        2.94239e+00        1.30862e+00        0.00000e+00 
 177.80        2.93366e+00        1.31536e+00        0.00000e+00 
 178.50        2.92491e+00        1.32206e+00        0.00000e+00 
 179.20        2.91615e+00        1.32872e+00        0.00000e+00 
 179.90        2.90737e+00        1.33536e+00        0.00000e+00 
 180.60        2.89859e+00        1.34195e+00        0.00000e+00 
 181.30        2.88978e+00        1.34851e+00        0.00000e+00 
 182.00        2.88097e+00        1.35504e+00        0.00000e+00 
 182.70        2.87214e+00        1.36153e+00        0.00000e+00 
 183.40        2.86330e+00        1.36798e+00        0.00000e+00 
 184.10        2.85445e+00        1.37440e+00        0.00000e+00 
 184.80        2.84558e+00        1.38079e+00        0.00000e+00 
 185.50        2.83671e+00        1.38714e+00        0.00000e+00 
 186.20        2.82782e+00        1.39345e+00        0.00000e+00 
 186.90        2.81892e+00        1.39972e+00        0.00000e+00 
 187.60        2.81002e+00        1.40596e+00        0.00000e+00 
 188.30        2.80110e+00        1.41217e+00        0.00000e+00 
 189.00        2.79218e+00        1.41833e+00        0.00000e+00 
 189.70        2.78324e+00        1.42446e+00        0.00000e+00 
 190.40        2.77430e+00        1.43055e+00        0.00000e+00 
 191.10        2.76535e+00        1.43661e+00        0.00000e+00 
 191.80        2.75639e+00        1.44263e+00        0.00000e+00 
 192.50        2.74742e+00        1.44861e+00        0.00000e+00 
 193.20        2.73844e+00        1.45456e+00        0.00000e+00 
 193.90        2.72946e+00        1.46047e+00        0.00000e+00 
 194.60        2.72047e+00        1.46634e+00        0.00000e+00 
 195.30        2.71148e+00        1.47217e+00        0.00000e+00 
 196.00        2.70248e+00        1.47797e+00        0.00000e+00 
 196.70        2.69347e+00        1.48373e+00        0.00000e+00 
 197.40        2.68446e+00        1.48945e+00        0.00000e+00 
 198.10        2.67545e+00        1.49513e+00        0.00000e+00 
 198.80        2.66643e+00        1.50078e+00        0.00000e+00 
 199.50        2.65740e+00        1.50639e+00        0.00000e+00 
 200.20        2.64837e+00        1.51196e+00        0.00000e+00 
 200.90        2.63934e+00        1.51749e+00        0.00000e+00 
 201.60        2.63031e+00        1.52299e+00        0.00000e+00 
 202.30        2.62127e+00        1.52845e+00        0.00000e+00 
 203.00        2.61223e+00        1.53387e+00        0.00000e+00 
 203.70        2.60318e+00        1.53925e+00        0.00000e+00 
 204.40        2.59414e+00        1.54460e+00        0.00000e+00 
 205.10        2.58509e+00        1.54991e+00        0.00000e+00 
 205.80        2.57604e+00        1.55518e+00        0.00000e+00 
 206.50        2.56699e+00        1.56041e+00        0.00000e+00 
 207.20        2.55794e+00        1.56561e+00        0.00000e+00 
 207.90        2.54889e+00        1.57077e+00        0.00000e+00 
 208.60        2.53984e+00        1.57589e+00        0.00000e+00 
 209.30        2.53079e+00        1.58097e+00        0.00000e+00 
 210.00        2.52174e+00        1.58602e+00        0.00000e+00 
 210.70        2.51268e+00        1.59103e+00        0.00000e+00 
