#Navio B MarAd
#Manobra de Curva Giro
#
#Velocidade Inercial
#
#temp           u           v           r
 0.00        4.11000e+00        0.00000e+00        0.00000e+00 
 0.70        4.11000e+00        1.07857e-04        0.00000e+00 
 1.40        4.11000e+00        2.12132e-04        0.00000e+00 
 2.10        4.10816e+00        -2.61166e-03        0.00000e+00 
 2.80        4.10632e+00        -5.31584e-03        0.00000e+00 
 3.50        4.10448e+00        -7.90097e-03        0.00000e+00 
 4.20        4.10265e+00        -1.03676e-02        0.00000e+00 
 4.90        4.10082e+00        -1.27163e-02        0.00000e+00 
 5.60        4.09899e+00        -1.49475e-02        0.00000e+00 
 6.30        4.09716e+00        -1.70619e-02        0.00000e+00 
 7.00        4.09534e+00        -1.90597e-02        0.00000e+00 
 7.70        4.09352e+00        -2.09416e-02        0.00000e+00 
 8.40        4.09170e+00        -2.27081e-02        0.00000e+00 
 9.10        4.08988e+00        -2.43594e-02        0.00000e+00 
 9.80        4.08806e+00        -2.58962e-02        0.00000e+00 
 10.50        4.08624e+00        -2.73188e-02        0.00000e+00 
 11.20        4.08442e+00        -2.86277e-02        0.00000e+00 
 11.90        4.08261e+00        -2.98232e-02        0.00000e+00 
 12.60        4.08079e+00        -3.09057e-02        0.00000e+00 
 13.30        4.07898e+00        -3.18757e-02        0.00000e+00 
 14.00        4.07716e+00        -3.27335e-02        0.00000e+00 
 14.70        4.07535e+00        -3.34796e-02        0.00000e+00 
 15.40        4.07353e+00        -3.41141e-02        0.00000e+00 
 16.10        4.07171e+00        -3.46376e-02        0.00000e+00 
 16.80        4.06989e+00        -3.50504e-02        0.00000e+00 
 17.50        4.06807e+00        -3.53528e-02        0.00000e+00 
 18.20        4.06625e+00        -3.55451e-02        0.00000e+00 
 18.90        4.06442e+00        -3.56277e-02        0.00000e+00 
 19.60        4.06259e+00        -3.56010e-02        0.00000e+00 
 20.30        4.06076e+00        -3.54651e-02        0.00000e+00 
 21.00        4.05893e+00        -3.52206e-02        0.00000e+00 
 21.70        4.05709e+00        -3.48677e-02        0.00000e+00 
 22.40        4.05524e+00        -3.44067e-02        0.00000e+00 
 23.10        4.05340e+00        -3.38379e-02        0.00000e+00 
 23.80        4.05154e+00        -3.31616e-02        0.00000e+00 
 24.50        4.04968e+00        -3.23783e-02        0.00000e+00 
 25.20        4.04782e+00        -3.14881e-02        0.00000e+00 
 25.90        4.04595e+00        -3.04913e-02        0.00000e+00 
 26.60        4.04407e+00        -2.93884e-02        0.00000e+00 
 27.30        4.04218e+00        -2.81796e-02        0.00000e+00 
 28.00        4.04029e+00        -2.68652e-02        0.00000e+00 
 28.70        4.03839e+00        -2.54456e-02        0.00000e+00 
 29.40        4.03647e+00        -2.39210e-02        0.00000e+00 
 30.10        4.03455e+00        -2.22919e-02        0.00000e+00 
 30.80        4.03262e+00        -2.05584e-02        0.00000e+00 
 31.50        4.03068e+00        -1.87210e-02        0.00000e+00 
 32.20        4.02873e+00        -1.67799e-02        0.00000e+00 
 32.90        4.02676e+00        -1.47355e-02        0.00000e+00 
 33.60        4.02479e+00        -1.25882e-02        0.00000e+00 
 34.30        4.02280e+00        -1.03382e-02        0.00000e+00 
 35.00        4.02080e+00        -7.98602e-03        0.00000e+00 
 35.70        4.01878e+00        -5.53187e-03        0.00000e+00 
 36.40        4.01675e+00        -2.97617e-03        0.00000e+00 
 37.10        4.01471e+00        -3.19263e-04        0.00000e+00 
 37.80        4.01265e+00        2.43847e-03        0.00000e+00 
 38.50        4.01058e+00        5.29666e-03        0.00000e+00 
 39.20        4.00848e+00        8.25491e-03        0.00000e+00 
 39.90        4.00637e+00        1.13128e-02        0.00000e+00 
 40.60        4.00425e+00        1.44701e-02        0.00000e+00 
 41.30        4.00210e+00        1.77262e-02        0.00000e+00 
 42.00        3.99994e+00        2.10807e-02        0.00000e+00 
 42.70        3.99776e+00        2.45333e-02        0.00000e+00 
 43.40        3.99555e+00        2.80836e-02        0.00000e+00 
 44.10        3.99333e+00        3.17310e-02        0.00000e+00 
 44.80        3.99109e+00        3.54751e-02        0.00000e+00 
 45.50        3.98882e+00        3.93155e-02        0.00000e+00 
 46.20        3.98653e+00        4.32518e-02        0.00000e+00 
 46.90        3.98422e+00        4.72834e-02        0.00000e+00 
 47.60        3.98188e+00        5.14098e-02        0.00000e+00 
 48.30        3.97952e+00        5.56306e-02        0.00000e+00 
 49.00        3.97714e+00        5.99453e-02        0.00000e+00 
 49.70        3.97473e+00        6.43534e-02        0.00000e+00 
 50.40        3.97230e+00        6.88543e-02        0.00000e+00 
 51.10        3.96983e+00        7.34475e-02        0.00000e+00 
 51.80        3.96734e+00        7.81324e-02        0.00000e+00 
 52.50        3.96483e+00        8.29086e-02        0.00000e+00 
 53.20        3.96228e+00        8.77754e-02        0.00000e+00 
 53.90        3.95971e+00        9.27324e-02        0.00000e+00 
 54.60        3.95710e+00        9.77788e-02        0.00000e+00 
 55.30        3.95447e+00        1.02914e-01        0.00000e+00 
 56.00        3.95180e+00        1.08138e-01        0.00000e+00 
 56.70        3.94911e+00        1.13449e-01        0.00000e+00 
 57.40        3.94638e+00        1.18847e-01        0.00000e+00 
 58.10        3.94362e+00        1.24332e-01        0.00000e+00 
 58.80        3.94082e+00        1.29903e-01        0.00000e+00 
 59.50        3.93800e+00        1.35558e-01        0.00000e+00 
 60.20        3.93513e+00        1.41298e-01        0.00000e+00 
 60.90        3.93224e+00        1.47122e-01        0.00000e+00 
 61.60        3.92930e+00        1.53029e-01        0.00000e+00 
 62.30        3.92633e+00        1.59018e-01        0.00000e+00 
 63.00        3.92333e+00        1.65089e-01        0.00000e+00 
 63.70        3.92029e+00        1.71241e-01        0.00000e+00 
 64.40        3.91721e+00        1.77473e-01        0.00000e+00 
 65.10        3.91409e+00        1.83785e-01        0.00000e+00 
 65.80        3.91093e+00        1.90175e-01        0.00000e+00 
 66.50        3.90773e+00        1.96643e-01        0.00000e+00 
 67.20        3.90450e+00        2.03189e-01        0.00000e+00 
 67.90        3.90122e+00        2.09810e-01        0.00000e+00 
 68.60        3.89790e+00        2.16508e-01        0.00000e+00 
 69.30        3.89454e+00        2.23280e-01        0.00000e+00 
 70.00        3.89114e+00        2.30125e-01        0.00000e+00 
 70.70        3.88769e+00        2.37045e-01        0.00000e+00 
 71.40        3.88420e+00        2.44036e-01        0.00000e+00 
 72.10        3.88067e+00        2.51099e-01        0.00000e+00 
 72.80        3.87710e+00        2.58232e-01        0.00000e+00 
 73.50        3.87348e+00        2.65435e-01        0.00000e+00 
 74.20        3.86981e+00        2.72707e-01        0.00000e+00 
 74.90        3.86610e+00        2.80047e-01        0.00000e+00 
 75.60        3.86235e+00        2.87454e-01        0.00000e+00 
 76.30        3.85854e+00        2.94927e-01        0.00000e+00 
 77.00        3.85469e+00        3.02465e-01        0.00000e+00 
 77.70        3.85080e+00        3.10067e-01        0.00000e+00 
 78.40        3.84685e+00        3.17733e-01        0.00000e+00 
 79.10        3.84286e+00        3.25462e-01        0.00000e+00 
 79.80        3.83882e+00        3.33252e-01        0.00000e+00 
 80.50        3.83473e+00        3.41102e-01        0.00000e+00 
 81.20        3.83059e+00        3.49013e-01        0.00000e+00 
 81.90        3.82640e+00        3.56981e-01        0.00000e+00 
 82.60        3.82216e+00        3.65008e-01        0.00000e+00 
 83.30        3.81788e+00        3.73091e-01        0.00000e+00 
 84.00        3.81354e+00        3.81230e-01        0.00000e+00 
 84.70        3.80915e+00        3.89424e-01        0.00000e+00 
 85.40        3.80470e+00        3.97671e-01        0.00000e+00 
 86.10        3.80021e+00        4.05971e-01        0.00000e+00 
 86.80        3.79566e+00        4.14323e-01        0.00000e+00 
 87.50        3.79107e+00        4.22726e-01        0.00000e+00 
 88.20        3.78641e+00        4.31178e-01        0.00000e+00 
 88.90        3.78171e+00        4.39679e-01        0.00000e+00 
 89.60        3.77695e+00        4.48227e-01        0.00000e+00 
 90.30        3.77214e+00        4.56823e-01        0.00000e+00 
 91.00        3.76728e+00        4.65463e-01        0.00000e+00 
 91.70        3.76236e+00        4.74149e-01        0.00000e+00 
 92.40        3.75739e+00        4.82878e-01        0.00000e+00 
 93.10        3.75237e+00        4.91649e-01        0.00000e+00 
 93.80        3.74729e+00        5.00462e-01        0.00000e+00 
 94.50        3.74215e+00        5.09315e-01        0.00000e+00 
 95.20        3.73696e+00        5.18207e-01        0.00000e+00 
 95.90        3.73172e+00        5.27138e-01        0.00000e+00 
 96.60        3.72642e+00        5.36106e-01        0.00000e+00 
 97.30        3.72106e+00        5.45110e-01        0.00000e+00 
 98.00        3.71565e+00        5.54149e-01        0.00000e+00 
 98.70        3.71018e+00        5.63222e-01        0.00000e+00 
 99.40        3.70466e+00        5.72328e-01        0.00000e+00 
 100.10        3.69908e+00        5.81466e-01        0.00000e+00 
 100.80        3.69345e+00        5.90635e-01        0.00000e+00 
 101.50        3.68776e+00        5.99834e-01        0.00000e+00 
 102.20        3.68201e+00        6.09061e-01        0.00000e+00 
 102.90        3.67621e+00        6.18316e-01        0.00000e+00 
 103.60        3.67035e+00        6.27598e-01        0.00000e+00 
 104.30        3.66444e+00        6.36905e-01        0.00000e+00 
 105.00        3.65847e+00        6.46237e-01        0.00000e+00 
 105.70        3.65244e+00        6.55592e-01        0.00000e+00 
 106.40        3.64636e+00        6.64970e-01        0.00000e+00 
 107.10        3.64022e+00        6.74369e-01        0.00000e+00 
 107.80        3.63403e+00        6.83788e-01        0.00000e+00 
 108.50        3.62778e+00        6.93227e-01        0.00000e+00 
 109.20        3.62147e+00        7.02684e-01        0.00000e+00 
 109.90        3.61511e+00        7.12157e-01        0.00000e+00 
 110.60        3.60869e+00        7.21647e-01        0.00000e+00 
 111.30        3.60222e+00        7.31153e-01        0.00000e+00 
 112.00        3.59569e+00        7.40672e-01        0.00000e+00 
 112.70        3.58910e+00        7.50204e-01        0.00000e+00 
 113.40        3.58246e+00        7.59748e-01        0.00000e+00 
 114.10        3.57576e+00        7.69304e-01        0.00000e+00 
 114.80        3.56901e+00        7.78869e-01        0.00000e+00 
 115.50        3.56220e+00        7.88443e-01        0.00000e+00 
 116.20        3.55534e+00        7.98026e-01        0.00000e+00 
 116.90        3.54842e+00        8.07615e-01        0.00000e+00 
 117.60        3.54145e+00        8.17210e-01        0.00000e+00 
 118.30        3.53443e+00        8.26811e-01        0.00000e+00 
 119.00        3.52735e+00        8.36415e-01        0.00000e+00 
 119.70        3.52021e+00        8.46023e-01        0.00000e+00 
 120.40        3.51302e+00        8.55632e-01        0.00000e+00 
 121.10        3.50578e+00        8.65243e-01        0.00000e+00 
 121.80        3.49849e+00        8.74854e-01        0.00000e+00 
 122.50        3.49114e+00        8.84464e-01        0.00000e+00 
 123.20        3.48374e+00        8.94073e-01        0.00000e+00 
 123.90        3.47628e+00        9.03679e-01        0.00000e+00 
 124.60        3.46878e+00        9.13281e-01        0.00000e+00 
 125.30        3.46122e+00        9.22879e-01        0.00000e+00 
 126.00        3.45361e+00        9.32472e-01        0.00000e+00 
 126.70        3.44595e+00        9.42058e-01        0.00000e+00 
 127.40        3.43823e+00        9.51638e-01        0.00000e+00 
 128.10        3.43047e+00        9.61209e-01        0.00000e+00 
 128.80        3.42266e+00        9.70771e-01        0.00000e+00 
 129.50        3.41479e+00        9.80324e-01        0.00000e+00 
 130.20        3.40688e+00        9.89866e-01        0.00000e+00 
 130.90        3.39891e+00        9.99396e-01        0.00000e+00 
 131.60        3.39090e+00        1.00891e+00        0.00000e+00 
 132.30        3.38283e+00        1.01842e+00        0.00000e+00 
 133.00        3.37472e+00        1.02791e+00        0.00000e+00 
 133.70        3.36656e+00        1.03739e+00        0.00000e+00 
 134.40        3.35836e+00        1.04685e+00        0.00000e+00 
 135.10        3.35010e+00        1.05629e+00        0.00000e+00 
 135.80        3.34180e+00        1.06572e+00        0.00000e+00 
 136.50        3.33345e+00        1.07513e+00        0.00000e+00 
 137.20        3.32505e+00        1.08452e+00        0.00000e+00 
 137.90        3.31661e+00        1.09389e+00        0.00000e+00 
 138.60        3.30813e+00        1.10324e+00        0.00000e+00 
 139.30        3.29959e+00        1.11257e+00        0.00000e+00 
 140.00        3.29102e+00        1.12188e+00        0.00000e+00 
 140.70        3.28240e+00        1.13116e+00        0.00000e+00 
 141.40        3.27373e+00        1.14042e+00        0.00000e+00 
 142.10        3.26502e+00        1.14966e+00        0.00000e+00 
 142.80        3.25627e+00        1.15888e+00        0.00000e+00 
 143.50        3.24748e+00        1.16806e+00        0.00000e+00 
 144.20        3.23864e+00        1.17723e+00        0.00000e+00 
 144.90        3.22976e+00        1.18636e+00        0.00000e+00 
 145.60        3.22084e+00        1.19547e+00        0.00000e+00 
 146.30        3.21188e+00        1.20455e+00        0.00000e+00 
 147.00        3.20288e+00        1.21361e+00        0.00000e+00 
 147.70        3.19385e+00        1.22263e+00        0.00000e+00 
 148.40        3.18477e+00        1.23162e+00        0.00000e+00 
 149.10        3.17565e+00        1.24059e+00        0.00000e+00 
 149.80        3.16649e+00        1.24952e+00        0.00000e+00 
 150.50        3.15730e+00        1.25842e+00        0.00000e+00 
 151.20        3.14807e+00        1.26729e+00        0.00000e+00 
 151.90        3.13880e+00        1.27613e+00        0.00000e+00 
 152.60        3.12949e+00        1.28493e+00        0.00000e+00 
 153.30        3.12015e+00        1.29370e+00        0.00000e+00 
 154.00        3.11077e+00        1.30243e+00        0.00000e+00 
 154.70        3.10136e+00        1.31114e+00        0.00000e+00 
 155.40        3.09191e+00        1.31980e+00        0.00000e+00 
 156.10        3.08243e+00        1.32843e+00        0.00000e+00 
 156.80        3.07292e+00        1.33702e+00        0.00000e+00 
 157.50        3.06337e+00        1.34558e+00        0.00000e+00 
 158.20        3.05379e+00        1.35410e+00        0.00000e+00 
 158.90        3.04418e+00        1.36258e+00        0.00000e+00 
 159.60        3.03454e+00        1.37103e+00        0.00000e+00 
 160.30        3.02486e+00        1.37943e+00        0.00000e+00 
 161.00        3.01516e+00        1.38780e+00        0.00000e+00 
 161.70        3.00542e+00        1.39612e+00        0.00000e+00 
 162.40        2.99566e+00        1.40441e+00        0.00000e+00 
 163.10        2.98587e+00        1.41266e+00        0.00000e+00 
 163.80        2.97604e+00        1.42086e+00        0.00000e+00 
 164.50        2.96619e+00        1.42903e+00        0.00000e+00 
 165.20        2.95632e+00        1.43715e+00        0.00000e+00 
 165.90        2.94641e+00        1.44524e+00        0.00000e+00 
 166.60        2.93648e+00        1.45328e+00        0.00000e+00 
 167.30        2.92652e+00        1.46127e+00        0.00000e+00 
 168.00        2.91654e+00        1.46923e+00        0.00000e+00 
 168.70        2.90653e+00        1.47714e+00        0.00000e+00 
 169.40        2.89650e+00        1.48501e+00        0.00000e+00 
 170.10        2.88644e+00        1.49283e+00        0.00000e+00 
 170.80        2.87636e+00        1.50061e+00        0.00000e+00 
 171.50        2.86626e+00        1.50835e+00        0.00000e+00 
 172.20        2.85614e+00        1.51604e+00        0.00000e+00 
 172.90        2.84599e+00        1.52369e+00        0.00000e+00 
 173.60        2.83582e+00        1.53129e+00        0.00000e+00 
 174.30        2.82563e+00        1.53885e+00        0.00000e+00 
 175.00        2.81542e+00        1.54636e+00        0.00000e+00 
 175.70        2.80519e+00        1.55383e+00        0.00000e+00 
 176.40        2.79494e+00        1.56124e+00        0.00000e+00 
 177.10        2.78467e+00        1.56862e+00        0.00000e+00 
 177.80        2.77439e+00        1.57594e+00        0.00000e+00 
 178.50        2.76408e+00        1.58322e+00        0.00000e+00 
 179.20        2.75376e+00        1.59046e+00        0.00000e+00 
 179.90        2.74342e+00        1.59764e+00        0.00000e+00 
 180.60        2.73306e+00        1.60478e+00        0.00000e+00 
 181.30        2.72269e+00        1.61187e+00        0.00000e+00 
 182.00        2.71230e+00        1.61892e+00        0.00000e+00 
 182.70        2.70190e+00        1.62591e+00        0.00000e+00 
 183.40        2.69148e+00        1.63286e+00        0.00000e+00 
 184.10        2.68105e+00        1.63976e+00        0.00000e+00 
 184.80        2.67061e+00        1.64661e+00        0.00000e+00 
 185.50        2.66015e+00        1.65341e+00        0.00000e+00 
 186.20        2.64968e+00        1.66017e+00        0.00000e+00 
 186.90        2.63919e+00        1.66688e+00        0.00000e+00 
 187.60        2.62870e+00        1.67353e+00        0.00000e+00 
 188.30        2.61819e+00        1.68014e+00        0.00000e+00 
 189.00        2.60767e+00        1.68670e+00        0.00000e+00 
 189.70        2.59714e+00        1.69321e+00        0.00000e+00 
 190.40        2.58661e+00        1.69968e+00        0.00000e+00 
 191.10        2.57606e+00        1.70609e+00        0.00000e+00 
 191.80        2.56550e+00        1.71245e+00        0.00000e+00 
 192.50        2.55493e+00        1.71877e+00        0.00000e+00 
 193.20        2.54436e+00        1.72503e+00        0.00000e+00 
 193.90        2.53378e+00        1.73125e+00        0.00000e+00 
 194.60        2.52319e+00        1.73741e+00        0.00000e+00 
 195.30        2.51259e+00        1.74353e+00        0.00000e+00 
 196.00        2.50199e+00        1.74960e+00        0.00000e+00 
 196.70        2.49138e+00        1.75562e+00        0.00000e+00 
 197.40        2.48076e+00        1.76159e+00        0.00000e+00 
 198.10        2.47014e+00        1.76751e+00        0.00000e+00 
 198.80        2.45952e+00        1.77338e+00        0.00000e+00 
 199.50        2.44889e+00        1.77920e+00        0.00000e+00 
 200.20        2.43826e+00        1.78497e+00        0.00000e+00 
 200.90        2.42762e+00        1.79069e+00        0.00000e+00 
 201.60        2.41698e+00        1.79636e+00        0.00000e+00 
 202.30        2.40633e+00        1.80198e+00        0.00000e+00 
 203.00        2.39569e+00        1.80756e+00        0.00000e+00 
 203.70        2.38504e+00        1.81308e+00        0.00000e+00 
 204.40        2.37439e+00        1.81856e+00        0.00000e+00 
 205.10        2.36374e+00        1.82398e+00        0.00000e+00 
 205.80        2.35309e+00        1.82936e+00        0.00000e+00 
 206.50        2.34244e+00        1.83468e+00        0.00000e+00 
 207.20        2.33178e+00        1.83996e+00        0.00000e+00 
 207.90        2.32113e+00        1.84519e+00        0.00000e+00 
 208.60        2.31048e+00        1.85037e+00        0.00000e+00 
 209.30        2.29983e+00        1.85550e+00        0.00000e+00 
 210.00        2.28918e+00        1.86058e+00        0.00000e+00 
 210.70        2.27853e+00        1.86561e+00        0.00000e+00 
 211.40        2.26788e+00        1.87060e+00        0.00000e+00 
