#Navio B MarAd
#Manobra de Curva Giro
#
#Velocidade Sistema Solidário 
#
#temp           u           v           w    dot roll   dot pitch     dot yaw 
 0.00        4.11000e+00        0.00000e+00        0.00000e+00        0.00000e+00        0.00000e+00        0.00000e+00 
 0.70        4.11000e+00        8.71324e-05        0.00000e+00        0.00000e+00        0.00000e+00        -2.04945e-06 
 1.40        4.11000e+00        1.76297e-04        0.00000e+00        0.00000e+00        0.00000e+00        -4.08247e-06 
 2.10        4.10816e+00        -2.74991e-03        0.00000e+00        0.00000e+00        0.00000e+00        5.84001e-05 
 2.80        4.10632e+00        -5.73557e-03        0.00000e+00        0.00000e+00        0.00000e+00        1.20373e-04 
 3.50        4.10448e+00        -8.77959e-03        0.00000e+00        0.00000e+00        0.00000e+00        1.81844e-04 
 4.20        4.10265e+00        -1.18809e-02        0.00000e+00        0.00000e+00        0.00000e+00        2.42821e-04 
 4.90        4.10081e+00        -1.50384e-02        0.00000e+00        0.00000e+00        0.00000e+00        3.03312e-04 
 5.60        4.09898e+00        -1.82511e-02        0.00000e+00        0.00000e+00        0.00000e+00        3.63325e-04 
 6.30        4.09714e+00        -2.15178e-02        0.00000e+00        0.00000e+00        0.00000e+00        4.22867e-04 
 7.00        4.09531e+00        -2.48377e-02        0.00000e+00        0.00000e+00        0.00000e+00        4.81946e-04 
 7.70        4.09347e+00        -2.82096e-02        0.00000e+00        0.00000e+00        0.00000e+00        5.40567e-04 
 8.40        4.09164e+00        -3.16324e-02        0.00000e+00        0.00000e+00        0.00000e+00        5.98737e-04 
 9.10        4.08980e+00        -3.51053e-02        0.00000e+00        0.00000e+00        0.00000e+00        6.56464e-04 
 9.80        4.08796e+00        -3.86272e-02        0.00000e+00        0.00000e+00        0.00000e+00        7.13753e-04 
 10.50        4.08612e+00        -4.21971e-02        0.00000e+00        0.00000e+00        0.00000e+00        7.70609e-04 
 11.20        4.08427e+00        -4.58139e-02        0.00000e+00        0.00000e+00        0.00000e+00        8.27040e-04 
 11.90        4.08242e+00        -4.94769e-02        0.00000e+00        0.00000e+00        0.00000e+00        8.83051e-04 
 12.60        4.08057e+00        -5.31848e-02        0.00000e+00        0.00000e+00        0.00000e+00        9.38647e-04 
 13.30        4.07871e+00        -5.69369e-02        0.00000e+00        0.00000e+00        0.00000e+00        9.93832e-04 
 14.00        4.07685e+00        -6.07321e-02        0.00000e+00        0.00000e+00        0.00000e+00        1.04861e-03 
 14.70        4.07498e+00        -6.45695e-02        0.00000e+00        0.00000e+00        0.00000e+00        1.10299e-03 
 15.40        4.07310e+00        -6.84482e-02        0.00000e+00        0.00000e+00        0.00000e+00        1.15698e-03 
 16.10        4.07122e+00        -7.23671e-02        0.00000e+00        0.00000e+00        0.00000e+00        1.21058e-03 
 16.80        4.06933e+00        -7.63255e-02        0.00000e+00        0.00000e+00        0.00000e+00        1.26379e-03 
 17.50        4.06744e+00        -8.03223e-02        0.00000e+00        0.00000e+00        0.00000e+00        1.31661e-03 
 18.20        4.06554e+00        -8.43566e-02        0.00000e+00        0.00000e+00        0.00000e+00        1.36906e-03 
 18.90        4.06363e+00        -8.84276e-02        0.00000e+00        0.00000e+00        0.00000e+00        1.42114e-03 
 19.60        4.06171e+00        -9.25342e-02        0.00000e+00        0.00000e+00        0.00000e+00        1.47284e-03 
 20.30        4.05978e+00        -9.66758e-02        0.00000e+00        0.00000e+00        0.00000e+00        1.52418e-03 
 21.00        4.05784e+00        -1.00851e-01        0.00000e+00        0.00000e+00        0.00000e+00        1.57516e-03 
 21.70        4.05589e+00        -1.05060e-01        0.00000e+00        0.00000e+00        0.00000e+00        1.62577e-03 
 22.40        4.05393e+00        -1.09300e-01        0.00000e+00        0.00000e+00        0.00000e+00        1.67603e-03 
 23.10        4.05196e+00        -1.13572e-01        0.00000e+00        0.00000e+00        0.00000e+00        1.72593e-03 
 23.80        4.04998e+00        -1.17875e-01        0.00000e+00        0.00000e+00        0.00000e+00        1.77549e-03 
 24.50        4.04799e+00        -1.22207e-01        0.00000e+00        0.00000e+00        0.00000e+00        1.82469e-03 
 25.20        4.04598e+00        -1.26567e-01        0.00000e+00        0.00000e+00        0.00000e+00        1.87355e-03 
 25.90        4.04396e+00        -1.30956e-01        0.00000e+00        0.00000e+00        0.00000e+00        1.92207e-03 
 26.60        4.04193e+00        -1.35372e-01        0.00000e+00        0.00000e+00        0.00000e+00        1.97024e-03 
 27.30        4.03988e+00        -1.39813e-01        0.00000e+00        0.00000e+00        0.00000e+00        2.01808e-03 
 28.00        4.03782e+00        -1.44280e-01        0.00000e+00        0.00000e+00        0.00000e+00        2.06559e-03 
 28.70        4.03575e+00        -1.48772e-01        0.00000e+00        0.00000e+00        0.00000e+00        2.11275e-03 
 29.40        4.03366e+00        -1.53287e-01        0.00000e+00        0.00000e+00        0.00000e+00        2.15959e-03 
 30.10        4.03155e+00        -1.57825e-01        0.00000e+00        0.00000e+00        0.00000e+00        2.20610e-03 
 30.80        4.02943e+00        -1.62385e-01        0.00000e+00        0.00000e+00        0.00000e+00        2.25228e-03 
 31.50        4.02729e+00        -1.66966e-01        0.00000e+00        0.00000e+00        0.00000e+00        2.29813e-03 
 32.20        4.02514e+00        -1.71568e-01        0.00000e+00        0.00000e+00        0.00000e+00        2.34366e-03 
 32.90        4.02297e+00        -1.76190e-01        0.00000e+00        0.00000e+00        0.00000e+00        2.38887e-03 
 33.60        4.02078e+00        -1.80830e-01        0.00000e+00        0.00000e+00        0.00000e+00        2.43375e-03 
 34.30        4.01857e+00        -1.85488e-01        0.00000e+00        0.00000e+00        0.00000e+00        2.47832e-03 
 35.00        4.01635e+00        -1.90164e-01        0.00000e+00        0.00000e+00        0.00000e+00        2.52256e-03 
 35.70        4.01410e+00        -1.94855e-01        0.00000e+00        0.00000e+00        0.00000e+00        2.56649e-03 
 36.40        4.01184e+00        -1.99563e-01        0.00000e+00        0.00000e+00        0.00000e+00        2.61011e-03 
 37.10        4.00956e+00        -2.04286e-01        0.00000e+00        0.00000e+00        0.00000e+00        2.65340e-03 
 37.80        4.00725e+00        -2.09022e-01        0.00000e+00        0.00000e+00        0.00000e+00        2.69639e-03 
 38.50        4.00493e+00        -2.13773e-01        0.00000e+00        0.00000e+00        0.00000e+00        2.73906e-03 
 39.20        4.00258e+00        -2.18535e-01        0.00000e+00        0.00000e+00        0.00000e+00        2.78141e-03 
 39.90        4.00022e+00        -2.23310e-01        0.00000e+00        0.00000e+00        0.00000e+00        2.82346e-03 
 40.60        3.99783e+00        -2.28096e-01        0.00000e+00        0.00000e+00        0.00000e+00        2.86520e-03 
 41.30        3.99542e+00        -2.32892e-01        0.00000e+00        0.00000e+00        0.00000e+00        2.90662e-03 
 42.00        3.99299e+00        -2.37698e-01        0.00000e+00        0.00000e+00        0.00000e+00        2.94774e-03 
 42.70        3.99054e+00        -2.42513e-01        0.00000e+00        0.00000e+00        0.00000e+00        2.98855e-03 
 43.40        3.98806e+00        -2.47336e-01        0.00000e+00        0.00000e+00        0.00000e+00        3.02905e-03 
 44.10        3.98556e+00        -2.52167e-01        0.00000e+00        0.00000e+00        0.00000e+00        3.06924e-03 
 44.80        3.98304e+00        -2.57005e-01        0.00000e+00        0.00000e+00        0.00000e+00        3.10913e-03 
 45.50        3.98049e+00        -2.61848e-01        0.00000e+00        0.00000e+00        0.00000e+00        3.14871e-03 
 46.20        3.97792e+00        -2.66697e-01        0.00000e+00        0.00000e+00        0.00000e+00        3.18799e-03 
 46.90        3.97532e+00        -2.71551e-01        0.00000e+00        0.00000e+00        0.00000e+00        3.22696e-03 
 47.60        3.97270e+00        -2.76409e-01        0.00000e+00        0.00000e+00        0.00000e+00        3.26562e-03 
 48.30        3.97006e+00        -2.81270e-01        0.00000e+00        0.00000e+00        0.00000e+00        3.30399e-03 
 49.00        3.96739e+00        -2.86134e-01        0.00000e+00        0.00000e+00        0.00000e+00        3.34204e-03 
 49.70        3.96469e+00        -2.91000e-01        0.00000e+00        0.00000e+00        0.00000e+00        3.37979e-03 
 50.40        3.96197e+00        -2.95867e-01        0.00000e+00        0.00000e+00        0.00000e+00        3.41724e-03 
 51.10        3.95922e+00        -3.00735e-01        0.00000e+00        0.00000e+00        0.00000e+00        3.45439e-03 
 51.80        3.95645e+00        -3.05603e-01        0.00000e+00        0.00000e+00        0.00000e+00        3.49123e-03 
 52.50        3.95364e+00        -3.10470e-01        0.00000e+00        0.00000e+00        0.00000e+00        3.52777e-03 
 53.20        3.95082e+00        -3.15336e-01        0.00000e+00        0.00000e+00        0.00000e+00        3.56401e-03 
 53.90        3.94796e+00        -3.20200e-01        0.00000e+00        0.00000e+00        0.00000e+00        3.59994e-03 
 54.60        3.94508e+00        -3.25062e-01        0.00000e+00        0.00000e+00        0.00000e+00        3.63557e-03 
 55.30        3.94217e+00        -3.29920e-01        0.00000e+00        0.00000e+00        0.00000e+00        3.67090e-03 
 56.00        3.93923e+00        -3.34775e-01        0.00000e+00        0.00000e+00        0.00000e+00        3.70593e-03 
 56.70        3.93626e+00        -3.39625e-01        0.00000e+00        0.00000e+00        0.00000e+00        3.74065e-03 
 57.40        3.93327e+00        -3.44470e-01        0.00000e+00        0.00000e+00        0.00000e+00        3.77508e-03 
 58.10        3.93025e+00        -3.49310e-01        0.00000e+00        0.00000e+00        0.00000e+00        3.80920e-03 
 58.80        3.92720e+00        -3.54144e-01        0.00000e+00        0.00000e+00        0.00000e+00        3.84302e-03 
 59.50        3.92412e+00        -3.58971e-01        0.00000e+00        0.00000e+00        0.00000e+00        3.87653e-03 
 60.20        3.92101e+00        -3.63790e-01        0.00000e+00        0.00000e+00        0.00000e+00        3.90975e-03 
 60.90        3.91787e+00        -3.68602e-01        0.00000e+00        0.00000e+00        0.00000e+00        3.94266e-03 
 61.60        3.91471e+00        -3.73405e-01        0.00000e+00        0.00000e+00        0.00000e+00        3.97528e-03 
 62.30        3.91151e+00        -3.78200e-01        0.00000e+00        0.00000e+00        0.00000e+00        4.00759e-03 
 63.00        3.90828e+00        -3.82984e-01        0.00000e+00        0.00000e+00        0.00000e+00        4.03960e-03 
 63.70        3.90503e+00        -3.87759e-01        0.00000e+00        0.00000e+00        0.00000e+00        4.07131e-03 
 64.40        3.90175e+00        -3.92523e-01        0.00000e+00        0.00000e+00        0.00000e+00        4.10272e-03 
 65.10        3.89843e+00        -3.97276e-01        0.00000e+00        0.00000e+00        0.00000e+00        4.13383e-03 
 65.80        3.89509e+00        -4.02017e-01        0.00000e+00        0.00000e+00        0.00000e+00        4.16463e-03 
 66.50        3.89172e+00        -4.06746e-01        0.00000e+00        0.00000e+00        0.00000e+00        4.19514e-03 
 67.20        3.88831e+00        -4.11462e-01        0.00000e+00        0.00000e+00        0.00000e+00        4.22535e-03 
 67.90        3.88488e+00        -4.16165e-01        0.00000e+00        0.00000e+00        0.00000e+00        4.25525e-03 
 68.60        3.88142e+00        -4.20855e-01        0.00000e+00        0.00000e+00        0.00000e+00        4.28486e-03 
 69.30        3.87792e+00        -4.25530e-01        0.00000e+00        0.00000e+00        0.00000e+00        4.31416e-03 
 70.00        3.87440e+00        -4.30191e-01        0.00000e+00        0.00000e+00        0.00000e+00        4.34317e-03 
 70.70        3.87084e+00        -4.34836e-01        0.00000e+00        0.00000e+00        0.00000e+00        4.37188e-03 
 71.40        3.86726e+00        -4.39466e-01        0.00000e+00        0.00000e+00        0.00000e+00        4.40028e-03 
 72.10        3.86364e+00        -4.44080e-01        0.00000e+00        0.00000e+00        0.00000e+00        4.42839e-03 
 72.80        3.86000e+00        -4.48677e-01        0.00000e+00        0.00000e+00        0.00000e+00        4.45620e-03 
 73.50        3.85632e+00        -4.53258e-01        0.00000e+00        0.00000e+00        0.00000e+00        4.48371e-03 
 74.20        3.85262e+00        -4.57821e-01        0.00000e+00        0.00000e+00        0.00000e+00        4.51092e-03 
 74.90        3.84888e+00        -4.62366e-01        0.00000e+00        0.00000e+00        0.00000e+00        4.53784e-03 
 75.60        3.84512e+00        -4.66893e-01        0.00000e+00        0.00000e+00        0.00000e+00        4.56446e-03 
 76.30        3.84132e+00        -4.71402e-01        0.00000e+00        0.00000e+00        0.00000e+00        4.59078e-03 
 77.00        3.83749e+00        -4.75891e-01        0.00000e+00        0.00000e+00        0.00000e+00        4.61680e-03 
 77.70        3.83364e+00        -4.80361e-01        0.00000e+00        0.00000e+00        0.00000e+00        4.64252e-03 
 78.40        3.82975e+00        -4.84812e-01        0.00000e+00        0.00000e+00        0.00000e+00        4.66795e-03 
 79.10        3.82583e+00        -4.89242e-01        0.00000e+00        0.00000e+00        0.00000e+00        4.69309e-03 
 79.80        3.82189e+00        -4.93651e-01        0.00000e+00        0.00000e+00        0.00000e+00        4.71793e-03 
 80.50        3.81791e+00        -4.98040e-01        0.00000e+00        0.00000e+00        0.00000e+00        4.74247e-03 
 81.20        3.81390e+00        -5.02407e-01        0.00000e+00        0.00000e+00        0.00000e+00        4.76672e-03 
 81.90        3.80987e+00        -5.06753e-01        0.00000e+00        0.00000e+00        0.00000e+00        4.79068e-03 
 82.60        3.80580e+00        -5.11077e-01        0.00000e+00        0.00000e+00        0.00000e+00        4.81434e-03 
 83.30        3.80170e+00        -5.15378e-01        0.00000e+00        0.00000e+00        0.00000e+00        4.83771e-03 
 84.00        3.79758e+00        -5.19657e-01        0.00000e+00        0.00000e+00        0.00000e+00        4.86079e-03 
 84.70        3.79342e+00        -5.23913e-01        0.00000e+00        0.00000e+00        0.00000e+00        4.88357e-03 
 85.40        3.78924e+00        -5.28146e-01        0.00000e+00        0.00000e+00        0.00000e+00        4.90607e-03 
 86.10        3.78503e+00        -5.32355e-01        0.00000e+00        0.00000e+00        0.00000e+00        4.92827e-03 
 86.80        3.78079e+00        -5.36540e-01        0.00000e+00        0.00000e+00        0.00000e+00        4.95019e-03 
 87.50        3.77652e+00        -5.40701e-01        0.00000e+00        0.00000e+00        0.00000e+00        4.97181e-03 
 88.20        3.77222e+00        -5.44838e-01        0.00000e+00        0.00000e+00        0.00000e+00        4.99315e-03 
 88.90        3.76789e+00        -5.48950e-01        0.00000e+00        0.00000e+00        0.00000e+00        5.01420e-03 
 89.60        3.76353e+00        -5.53037e-01        0.00000e+00        0.00000e+00        0.00000e+00        5.03497e-03 
 90.30        3.75915e+00        -5.57098e-01        0.00000e+00        0.00000e+00        0.00000e+00        5.05545e-03 
 91.00        3.75473e+00        -5.61135e-01        0.00000e+00        0.00000e+00        0.00000e+00        5.07564e-03 
 91.70        3.75029e+00        -5.65145e-01        0.00000e+00        0.00000e+00        0.00000e+00        5.09555e-03 
 92.40        3.74582e+00        -5.69130e-01        0.00000e+00        0.00000e+00        0.00000e+00        5.11518e-03 
 93.10        3.74133e+00        -5.73088e-01        0.00000e+00        0.00000e+00        0.00000e+00        5.13452e-03 
 93.80        3.73680e+00        -5.77020e-01        0.00000e+00        0.00000e+00        0.00000e+00        5.15358e-03 
 94.50        3.73225e+00        -5.80925e-01        0.00000e+00        0.00000e+00        0.00000e+00        5.17237e-03 
 95.20        3.72768e+00        -5.84804e-01        0.00000e+00        0.00000e+00        0.00000e+00        5.19087e-03 
 95.90        3.72307e+00        -5.88655e-01        0.00000e+00        0.00000e+00        0.00000e+00        5.20909e-03 
 96.60        3.71844e+00        -5.92479e-01        0.00000e+00        0.00000e+00        0.00000e+00        5.22704e-03 
 97.30        3.71379e+00        -5.96276e-01        0.00000e+00        0.00000e+00        0.00000e+00        5.24471e-03 
 98.00        3.70910e+00        -6.00045e-01        0.00000e+00        0.00000e+00        0.00000e+00        5.26211e-03 
 98.70        3.70439e+00        -6.03787e-01        0.00000e+00        0.00000e+00        0.00000e+00        5.27923e-03 
 99.40        3.69966e+00        -6.07500e-01        0.00000e+00        0.00000e+00        0.00000e+00        5.29607e-03 
 100.10        3.69490e+00        -6.11185e-01        0.00000e+00        0.00000e+00        0.00000e+00        5.31265e-03 
 100.80        3.69011e+00        -6.14842e-01        0.00000e+00        0.00000e+00        0.00000e+00        5.32896e-03 
 101.50        3.68530e+00        -6.18471e-01        0.00000e+00        0.00000e+00        0.00000e+00        5.34499e-03 
 102.20        3.68047e+00        -6.22071e-01        0.00000e+00        0.00000e+00        0.00000e+00        5.36076e-03 
 102.90        3.67561e+00        -6.25642e-01        0.00000e+00        0.00000e+00        0.00000e+00        5.37626e-03 
 103.60        3.67073e+00        -6.29185e-01        0.00000e+00        0.00000e+00        0.00000e+00        5.39149e-03 
 104.30        3.66582e+00        -6.32699e-01        0.00000e+00        0.00000e+00        0.00000e+00        5.40646e-03 
 105.00        3.66089e+00        -6.36183e-01        0.00000e+00        0.00000e+00        0.00000e+00        5.42117e-03 
 105.70        3.65594e+00        -6.39639e-01        0.00000e+00        0.00000e+00        0.00000e+00        5.43561e-03 
 106.40        3.65096e+00        -6.43065e-01        0.00000e+00        0.00000e+00        0.00000e+00        5.44980e-03 
 107.10        3.64596e+00        -6.46462e-01        0.00000e+00        0.00000e+00        0.00000e+00        5.46372e-03 
 107.80        3.64094e+00        -6.49830e-01        0.00000e+00        0.00000e+00        0.00000e+00        5.47739e-03 
 108.50        3.63589e+00        -6.53168e-01        0.00000e+00        0.00000e+00        0.00000e+00        5.49079e-03 
 109.20        3.63083e+00        -6.56476e-01        0.00000e+00        0.00000e+00        0.00000e+00        5.50395e-03 
 109.90        3.62574e+00        -6.59755e-01        0.00000e+00        0.00000e+00        0.00000e+00        5.51685e-03 
 110.60        3.62063e+00        -6.63004e-01        0.00000e+00        0.00000e+00        0.00000e+00        5.52950e-03 
 111.30        3.61550e+00        -6.66223e-01        0.00000e+00        0.00000e+00        0.00000e+00        5.54190e-03 
 112.00        3.61035e+00        -6.69413e-01        0.00000e+00        0.00000e+00        0.00000e+00        5.55404e-03 
