#Navio B MarAd
#Manobra de Curva Giro
#
#Velocidade Inercial
#
#temp           u           v           r
 0.00        4.11000e+00        0.00000e+00        0.00000e+00 
 0.70        4.11000e+00        8.38010e-05        0.00000e+00 
 1.40        4.11000e+00        1.64064e-04        0.00000e+00 
 2.10        4.10816e+00        -2.68325e-03        0.00000e+00 
 2.80        4.10632e+00        -5.41004e-03        0.00000e+00 
 3.50        4.10448e+00        -8.01687e-03        0.00000e+00 
 4.20        4.10265e+00        -1.05043e-02        0.00000e+00 
 4.90        4.10082e+00        -1.28730e-02        0.00000e+00 
 5.60        4.09899e+00        -1.51233e-02        0.00000e+00 
 6.30        4.09716e+00        -1.72560e-02        0.00000e+00 
 7.00        4.09534e+00        -1.92713e-02        0.00000e+00 
 7.70        4.09352e+00        -2.11700e-02        0.00000e+00 
 8.40        4.09170e+00        -2.29524e-02        0.00000e+00 
 9.10        4.08988e+00        -2.46190e-02        0.00000e+00 
 9.80        4.08806e+00        -2.61703e-02        0.00000e+00 
 10.50        4.08624e+00        -2.76068e-02        0.00000e+00 
 11.20        4.08442e+00        -2.89288e-02        0.00000e+00 
 11.90        4.08261e+00        -3.01369e-02        0.00000e+00 
 12.60        4.08079e+00        -3.12314e-02        0.00000e+00 
 13.30        4.07898e+00        -3.22128e-02        0.00000e+00 
 14.00        4.07716e+00        -3.30815e-02        0.00000e+00 
 14.70        4.07534e+00        -3.38379e-02        0.00000e+00 
 15.40        4.07353e+00        -3.44823e-02        0.00000e+00 
 16.10        4.07171e+00        -3.50151e-02        0.00000e+00 
 16.80        4.06989e+00        -3.54368e-02        0.00000e+00 
 17.50        4.06807e+00        -3.57477e-02        0.00000e+00 
 18.20        4.06625e+00        -3.59482e-02        0.00000e+00 
 18.90        4.06442e+00        -3.60387e-02        0.00000e+00 
 19.60        4.06259e+00        -3.60194e-02        0.00000e+00 
 20.30        4.06076e+00        -3.58908e-02        0.00000e+00 
 21.00        4.05893e+00        -3.56532e-02        0.00000e+00 
 21.70        4.05709e+00        -3.53070e-02        0.00000e+00 
 22.40        4.05524e+00        -3.48524e-02        0.00000e+00 
 23.10        4.05339e+00        -3.42900e-02        0.00000e+00 
 23.80        4.05154e+00        -3.36199e-02        0.00000e+00 
 24.50        4.04968e+00        -3.28426e-02        0.00000e+00 
 25.20        4.04782e+00        -3.19584e-02        0.00000e+00 
 25.90        4.04594e+00        -3.09676e-02        0.00000e+00 
 26.60        4.04407e+00        -2.98706e-02        0.00000e+00 
 27.30        4.04218e+00        -2.86677e-02        0.00000e+00 
 28.00        4.04028e+00        -2.73592e-02        0.00000e+00 
 28.70        4.03838e+00        -2.59456e-02        0.00000e+00 
 29.40        4.03647e+00        -2.44271e-02        0.00000e+00 
 30.10        4.03455e+00        -2.28041e-02        0.00000e+00 
 30.80        4.03262e+00        -2.10770e-02        0.00000e+00 
 31.50        4.03068e+00        -1.92460e-02        0.00000e+00 
 32.20        4.02872e+00        -1.73117e-02        0.00000e+00 
 32.90        4.02676e+00        -1.52742e-02        0.00000e+00 
 33.60        4.02478e+00        -1.31341e-02        0.00000e+00 
 34.30        4.02279e+00        -1.08916e-02        0.00000e+00 
 35.00        4.02079e+00        -8.54715e-03        0.00000e+00 
 35.70        4.01878e+00        -6.10111e-03        0.00000e+00 
 36.40        4.01675e+00        -3.55386e-03        0.00000e+00 
 37.10        4.01470e+00        -9.05798e-04        0.00000e+00 
 37.80        4.01264e+00        1.84269e-03        0.00000e+00 
 38.50        4.01057e+00        4.69120e-03        0.00000e+00 
 39.20        4.00847e+00        7.63932e-03        0.00000e+00 
 39.90        4.00637e+00        1.06867e-02        0.00000e+00 
 40.60        4.00424e+00        1.38328e-02        0.00000e+00 
 41.30        4.00209e+00        1.70772e-02        0.00000e+00 
 42.00        3.99993e+00        2.04196e-02        0.00000e+00 
 42.70        3.99775e+00        2.38595e-02        0.00000e+00 
 43.40        3.99554e+00        2.73964e-02        0.00000e+00 
 44.10        3.99332e+00        3.10298e-02        0.00000e+00 
 44.80        3.99108e+00        3.47594e-02        0.00000e+00 
 45.50        3.98881e+00        3.85846e-02        0.00000e+00 
 46.20        3.98652e+00        4.25050e-02        0.00000e+00 
 46.90        3.98421e+00        4.65200e-02        0.00000e+00 
 47.60        3.98187e+00        5.06292e-02        0.00000e+00 
 48.30        3.97951e+00        5.48320e-02        0.00000e+00 
 49.00        3.97713e+00        5.91279e-02        0.00000e+00 
 49.70        3.97472e+00        6.35165e-02        0.00000e+00 
 50.40        3.97229e+00        6.79971e-02        0.00000e+00 
 51.10        3.96982e+00        7.25693e-02        0.00000e+00 
 51.80        3.96734e+00        7.72324e-02        0.00000e+00 
 52.50        3.96482e+00        8.19859e-02        0.00000e+00 
 53.20        3.96227e+00        8.68292e-02        0.00000e+00 
 53.90        3.95970e+00        9.17618e-02        0.00000e+00 
 54.60        3.95710e+00        9.67830e-02        0.00000e+00 
 55.30        3.95446e+00        1.01892e-01        0.00000e+00 
 56.00        3.95180e+00        1.07089e-01        0.00000e+00 
 56.70        3.94910e+00        1.12372e-01        0.00000e+00 
 57.40        3.94638e+00        1.17742e-01        0.00000e+00 
 58.10        3.94362e+00        1.23197e-01        0.00000e+00 
 58.80        3.94082e+00        1.28737e-01        0.00000e+00 
 59.50        3.93800e+00        1.34361e-01        0.00000e+00 
 60.20        3.93514e+00        1.40069e-01        0.00000e+00 
 60.90        3.93224e+00        1.45859e-01        0.00000e+00 
 61.60        3.92931e+00        1.51732e-01        0.00000e+00 
 62.30        3.92634e+00        1.57686e-01        0.00000e+00 
 63.00        3.92334e+00        1.63721e-01        0.00000e+00 
 63.70        3.92030e+00        1.69835e-01        0.00000e+00 
 64.40        3.91722e+00        1.76029e-01        0.00000e+00 
 65.10        3.91411e+00        1.82301e-01        0.00000e+00 
 65.80        3.91095e+00        1.88652e-01        0.00000e+00 
 66.50        3.90776e+00        1.95079e-01        0.00000e+00 
 67.20        3.90452e+00        2.01582e-01        0.00000e+00 
 67.90        3.90125e+00        2.08160e-01        0.00000e+00 
 68.60        3.89793e+00        2.14813e-01        0.00000e+00 
 69.30        3.89458e+00        2.21540e-01        0.00000e+00 
 70.00        3.89118e+00        2.28340e-01        0.00000e+00 
 70.70        3.88774e+00        2.35212e-01        0.00000e+00 
 71.40        3.88425e+00        2.42155e-01        0.00000e+00 
 72.10        3.88073e+00        2.49168e-01        0.00000e+00 
 72.80        3.87716e+00        2.56252e-01        0.00000e+00 
 73.50        3.87354e+00        2.63403e-01        0.00000e+00 
 74.20        3.86988e+00        2.70623e-01        0.00000e+00 
 74.90        3.86618e+00        2.77910e-01        0.00000e+00 
 75.60        3.86242e+00        2.85263e-01        0.00000e+00 
 76.30        3.85863e+00        2.92680e-01        0.00000e+00 
 77.00        3.85478e+00        3.00162e-01        0.00000e+00 
 77.70        3.85089e+00        3.07708e-01        0.00000e+00 
 78.40        3.84696e+00        3.15316e-01        0.00000e+00 
 79.10        3.84297e+00        3.22985e-01        0.00000e+00 
 79.80        3.83894e+00        3.30715e-01        0.00000e+00 
 80.50        3.83485e+00        3.38504e-01        0.00000e+00 
 81.20        3.83072e+00        3.46353e-01        0.00000e+00 
 81.90        3.82654e+00        3.54258e-01        0.00000e+00 
 82.60        3.82231e+00        3.62221e-01        0.00000e+00 
 83.30        3.81803e+00        3.70239e-01        0.00000e+00 
 84.00        3.81370e+00        3.78312e-01        0.00000e+00 
 84.70        3.80931e+00        3.86439e-01        0.00000e+00 
 85.40        3.80488e+00        3.94619e-01        0.00000e+00 
 86.10        3.80040e+00        4.02850e-01        0.00000e+00 
 86.80        3.79586e+00        4.11133e-01        0.00000e+00 
 87.50        3.79127e+00        4.19465e-01        0.00000e+00 
 88.20        3.78663e+00        4.27846e-01        0.00000e+00 
 88.90        3.78194e+00        4.36274e-01        0.00000e+00 
 89.60        3.77719e+00        4.44750e-01        0.00000e+00 
 90.30        3.77239e+00        4.53271e-01        0.00000e+00 
 91.00        3.76754e+00        4.61837e-01        0.00000e+00 
 91.70        3.76263e+00        4.70446e-01        0.00000e+00 
 92.40        3.75767e+00        4.79098e-01        0.00000e+00 
 93.10        3.75266e+00        4.87792e-01        0.00000e+00 
 93.80        3.74759e+00        4.96526e-01        0.00000e+00 
 94.50        3.74247e+00        5.05300e-01        0.00000e+00 
 95.20        3.73729e+00        5.14113e-01        0.00000e+00 
 95.90        3.73206e+00        5.22963e-01        0.00000e+00 
 96.60        3.72678e+00        5.31849e-01        0.00000e+00 
 97.30        3.72143e+00        5.40770e-01        0.00000e+00 
 98.00        3.71604e+00        5.49726e-01        0.00000e+00 
 98.70        3.71059e+00        5.58715e-01        0.00000e+00 
 99.40        3.70508e+00        5.67737e-01        0.00000e+00 
 100.10        3.69952e+00        5.76789e-01        0.00000e+00 
 100.80        3.69390e+00        5.85872e-01        0.00000e+00 
 101.50        3.68822e+00        5.94984e-01        0.00000e+00 
 102.20        3.68250e+00        6.04123e-01        0.00000e+00 
 102.90        3.67671e+00        6.13290e-01        0.00000e+00 
 103.60        3.67087e+00        6.22483e-01        0.00000e+00 
 104.30        3.66497e+00        6.31700e-01        0.00000e+00 
 105.00        3.65902e+00        6.40941e-01        0.00000e+00 
 105.70        3.65301e+00        6.50205e-01        0.00000e+00 
 106.40        3.64695e+00        6.59491e-01        0.00000e+00 
 107.10        3.64083e+00        6.68797e-01        0.00000e+00 
 107.80        3.63465e+00        6.78123e-01        0.00000e+00 
 108.50        3.62842e+00        6.87468e-01        0.00000e+00 
 109.20        3.62214e+00        6.96830e-01        0.00000e+00 
 109.90        3.61579e+00        7.06209e-01        0.00000e+00 
 110.60        3.60940e+00        7.15603e-01        0.00000e+00 
 111.30        3.60294e+00        7.25012e-01        0.00000e+00 
 112.00        3.59643e+00        7.34434e-01        0.00000e+00 
 112.70        3.58987e+00        7.43869e-01        0.00000e+00 
 113.40        3.58325e+00        7.53315e-01        0.00000e+00 
 114.10        3.57658e+00        7.62772e-01        0.00000e+00 
 114.80        3.56985e+00        7.72238e-01        0.00000e+00 
 115.50        3.56306e+00        7.81713e-01        0.00000e+00 
 116.20        3.55623e+00        7.91195e-01        0.00000e+00 
 116.90        3.54933e+00        8.00683e-01        0.00000e+00 
 117.60        3.54239e+00        8.10177e-01        0.00000e+00 
 118.30        3.53539e+00        8.19676e-01        0.00000e+00 
 119.00        3.52833e+00        8.29178e-01        0.00000e+00 
 119.70        3.52122e+00        8.38683e-01        0.00000e+00 
 120.40        3.51406e+00        8.48189e-01        0.00000e+00 
 121.10        3.50685e+00        8.57696e-01        0.00000e+00 
 121.80        3.49958e+00        8.67203e-01        0.00000e+00 
 122.50        3.49226e+00        8.76709e-01        0.00000e+00 
 123.20        3.48488e+00        8.86212e-01        0.00000e+00 
 123.90        3.47746e+00        8.95712e-01        0.00000e+00 
 124.60        3.46998e+00        9.05209e-01        0.00000e+00 
 125.30        3.46245e+00        9.14701e-01        0.00000e+00 
 126.00        3.45487e+00        9.24186e-01        0.00000e+00 
 126.70        3.44724e+00        9.33666e-01        0.00000e+00 
 127.40        3.43956e+00        9.43137e-01        0.00000e+00 
 128.10        3.43182e+00        9.52601e-01        0.00000e+00 
 128.80        3.42404e+00        9.62055e-01        0.00000e+00 
 129.50        3.41621e+00        9.71498e-01        0.00000e+00 
 130.20        3.40832e+00        9.80931e-01        0.00000e+00 
 130.90        3.40039e+00        9.90352e-01        0.00000e+00 
 131.60        3.39241e+00        9.99761e-01        0.00000e+00 
 132.30        3.38438e+00        1.00916e+00        0.00000e+00 
 133.00        3.37630e+00        1.01854e+00        0.00000e+00 
 133.70        3.36818e+00        1.02790e+00        0.00000e+00 
 134.40        3.36000e+00        1.03725e+00        0.00000e+00 
 135.10        3.35178e+00        1.04658e+00        0.00000e+00 
 135.80        3.34352e+00        1.05590e+00        0.00000e+00 
 136.50        3.33521e+00        1.06520e+00        0.00000e+00 
 137.20        3.32685e+00        1.07447e+00        0.00000e+00 
 137.90        3.31844e+00        1.08373e+00        0.00000e+00 
 138.60        3.30999e+00        1.09297e+00        0.00000e+00 
 139.30        3.30150e+00        1.10219e+00        0.00000e+00 
 140.00        3.29296e+00        1.11138e+00        0.00000e+00 
 140.70        3.28438e+00        1.12055e+00        0.00000e+00 
 141.40        3.27575e+00        1.12970e+00        0.00000e+00 
 142.10        3.26709e+00        1.13883e+00        0.00000e+00 
 142.80        3.25838e+00        1.14793e+00        0.00000e+00 
 143.50        3.24962e+00        1.15700e+00        0.00000e+00 
 144.20        3.24083e+00        1.16605e+00        0.00000e+00 
 144.90        3.23199e+00        1.17507e+00        0.00000e+00 
 145.60        3.22312e+00        1.18406e+00        0.00000e+00 
 146.30        3.21420e+00        1.19303e+00        0.00000e+00 
 147.00        3.20524e+00        1.20197e+00        0.00000e+00 
 147.70        3.19625e+00        1.21087e+00        0.00000e+00 
 148.40        3.18721e+00        1.21975e+00        0.00000e+00 
 149.10        3.17814e+00        1.22860e+00        0.00000e+00 
 149.80        3.16903e+00        1.23742e+00        0.00000e+00 
 150.50        3.15988e+00        1.24620e+00        0.00000e+00 
 151.20        3.15070e+00        1.25495e+00        0.00000e+00 
 151.90        3.14148e+00        1.26367e+00        0.00000e+00 
 152.60        3.13222e+00        1.27236e+00        0.00000e+00 
 153.30        3.12293e+00        1.28101e+00        0.00000e+00 
 154.00        3.11360e+00        1.28963e+00        0.00000e+00 
 154.70        3.10424e+00        1.29822e+00        0.00000e+00 
 155.40        3.09484e+00        1.30676e+00        0.00000e+00 
 156.10        3.08541e+00        1.31528e+00        0.00000e+00 
 156.80        3.07595e+00        1.32375e+00        0.00000e+00 
 157.50        3.06645e+00        1.33219e+00        0.00000e+00 
 158.20        3.05693e+00        1.34059e+00        0.00000e+00 
 158.90        3.04737e+00        1.34896e+00        0.00000e+00 
 159.60        3.03778e+00        1.35728e+00        0.00000e+00 
 160.30        3.02816e+00        1.36557e+00        0.00000e+00 
 161.00        3.01851e+00        1.37382e+00        0.00000e+00 
 161.70        3.00883e+00        1.38203e+00        0.00000e+00 
 162.40        2.99912e+00        1.39020e+00        0.00000e+00 
 163.10        2.98938e+00        1.39833e+00        0.00000e+00 
 163.80        2.97962e+00        1.40642e+00        0.00000e+00 
 164.50        2.96983e+00        1.41446e+00        0.00000e+00 
 165.20        2.96001e+00        1.42247e+00        0.00000e+00 
 165.90        2.95016e+00        1.43043e+00        0.00000e+00 
 166.60        2.94029e+00        1.43836e+00        0.00000e+00 
 167.30        2.93040e+00        1.44624e+00        0.00000e+00 
 168.00        2.92047e+00        1.45407e+00        0.00000e+00 
 168.70        2.91053e+00        1.46187e+00        0.00000e+00 
 169.40        2.90056e+00        1.46962e+00        0.00000e+00 
 170.10        2.89057e+00        1.47733e+00        0.00000e+00 
 170.80        2.88055e+00        1.48499e+00        0.00000e+00 
 171.50        2.87051e+00        1.49261e+00        0.00000e+00 
 172.20        2.86045e+00        1.50018e+00        0.00000e+00 
 172.90        2.85037e+00        1.50771e+00        0.00000e+00 
 173.60        2.84027e+00        1.51520e+00        0.00000e+00 
 174.30        2.83015e+00        1.52264e+00        0.00000e+00 
 175.00        2.82000e+00        1.53003e+00        0.00000e+00 
 175.70        2.80984e+00        1.53738e+00        0.00000e+00 
 176.40        2.79966e+00        1.54468e+00        0.00000e+00 
 177.10        2.78947e+00        1.55194e+00        0.00000e+00 
 177.80        2.77925e+00        1.55914e+00        0.00000e+00 
 178.50        2.76902e+00        1.56631e+00        0.00000e+00 
 179.20        2.75876e+00        1.57342e+00        0.00000e+00 
 179.90        2.74850e+00        1.58049e+00        0.00000e+00 
 180.60        2.73822e+00        1.58751e+00        0.00000e+00 
 181.30        2.72792e+00        1.59449e+00        0.00000e+00 
 182.00        2.71760e+00        1.60142e+00        0.00000e+00 
 182.70        2.70728e+00        1.60830e+00        0.00000e+00 
 183.40        2.69694e+00        1.61513e+00        0.00000e+00 
 184.10        2.68658e+00        1.62191e+00        0.00000e+00 
 184.80        2.67621e+00        1.62865e+00        0.00000e+00 
 185.50        2.66583e+00        1.63534e+00        0.00000e+00 
 186.20        2.65544e+00        1.64198e+00        0.00000e+00 
 186.90        2.64504e+00        1.64857e+00        0.00000e+00 
 187.60        2.63462e+00        1.65511e+00        0.00000e+00 
 188.30        2.62420e+00        1.66160e+00        0.00000e+00 
 189.00        2.61376e+00        1.66805e+00        0.00000e+00 
 189.70        2.60332e+00        1.67445e+00        0.00000e+00 
 190.40        2.59286e+00        1.68079e+00        0.00000e+00 
 191.10        2.58240e+00        1.68709e+00        0.00000e+00 
 191.80        2.57193e+00        1.69334e+00        0.00000e+00 
 192.50        2.56145e+00        1.69954e+00        0.00000e+00 
 193.20        2.55096e+00        1.70570e+00        0.00000e+00 
 193.90        2.54046e+00        1.71180e+00        0.00000e+00 
 194.60        2.52996e+00        1.71785e+00        0.00000e+00 
 195.30        2.51945e+00        1.72386e+00        0.00000e+00 
 196.00        2.50894e+00        1.72981e+00        0.00000e+00 
 196.70        2.49842e+00        1.73572e+00        0.00000e+00 
 197.40        2.48790e+00        1.74158e+00        0.00000e+00 
 198.10        2.47737e+00        1.74739e+00        0.00000e+00 
 198.80        2.46684e+00        1.75315e+00        0.00000e+00 
 199.50        2.45630e+00        1.75886e+00        0.00000e+00 
 200.20        2.44576e+00        1.76452e+00        0.00000e+00 
 200.90        2.43522e+00        1.77013e+00        0.00000e+00 
 201.60        2.42468e+00        1.77569e+00        0.00000e+00 
 202.30        2.41413e+00        1.78120e+00        0.00000e+00 
 203.00        2.40358e+00        1.78667e+00        0.00000e+00 
 203.70        2.39303e+00        1.79208e+00        0.00000e+00 
 204.40        2.38248e+00        1.79745e+00        0.00000e+00 
 205.10        2.37193e+00        1.80277e+00        0.00000e+00 
 205.80        2.36138e+00        1.80804e+00        0.00000e+00 
 206.50        2.35083e+00        1.81326e+00        0.00000e+00 
 207.20        2.34028e+00        1.81843e+00        0.00000e+00 
 207.90        2.32973e+00        1.82355e+00        0.00000e+00 
 208.60        2.31918e+00        1.82862e+00        0.00000e+00 
 209.30        2.30863e+00        1.83365e+00        0.00000e+00 
 210.00        2.29809e+00        1.83862e+00        0.00000e+00 
 210.70        2.28755e+00        1.84355e+00        0.00000e+00 
 211.40        2.27701e+00        1.84843e+00        0.00000e+00 
