#Navio B MarAd
#Manobra de Curva Giro
#
#Velocidade Sistema Solidário 
#
#temp           u           v           w    dot roll   dot pitch     dot yaw 
 0.00        4.11000e+00        0.00000e+00        0.00000e+00        0.00000e+00        0.00000e+00        0.00000e+00 
 0.70        4.11000e+00        8.64858e-05        0.00000e+00        0.00000e+00        0.00000e+00        -1.86400e-06 
 1.40        4.11000e+00        1.74776e-04        0.00000e+00        0.00000e+00        0.00000e+00        -3.71373e-06 
 2.10        4.10816e+00        -2.75209e-03        0.00000e+00        0.00000e+00        0.00000e+00        5.89500e-05 
 2.80        4.10632e+00        -5.73774e-03        0.00000e+00        0.00000e+00        0.00000e+00        1.21102e-04 
 3.50        4.10448e+00        -8.78105e-03        0.00000e+00        0.00000e+00        0.00000e+00        1.82750e-04 
 4.20        4.10265e+00        -1.18809e-02        0.00000e+00        0.00000e+00        0.00000e+00        2.43902e-04 
 4.90        4.10081e+00        -1.50363e-02        0.00000e+00        0.00000e+00        0.00000e+00        3.04567e-04 
 5.60        4.09898e+00        -1.82460e-02        0.00000e+00        0.00000e+00        0.00000e+00        3.64753e-04 
 6.30        4.09714e+00        -2.15091e-02        0.00000e+00        0.00000e+00        0.00000e+00        4.24466e-04 
 7.00        4.09531e+00        -2.48245e-02        0.00000e+00        0.00000e+00        0.00000e+00        4.83713e-04 
 7.70        4.09347e+00        -2.81910e-02        0.00000e+00        0.00000e+00        0.00000e+00        5.42503e-04 
 8.40        4.09164e+00        -3.16077e-02        0.00000e+00        0.00000e+00        0.00000e+00        6.00842e-04 
 9.10        4.08980e+00        -3.50736e-02        0.00000e+00        0.00000e+00        0.00000e+00        6.58735e-04 
 9.80        4.08796e+00        -3.85876e-02        0.00000e+00        0.00000e+00        0.00000e+00        7.16191e-04 
 10.50        4.08612e+00        -4.21487e-02        0.00000e+00        0.00000e+00        0.00000e+00        7.73214e-04 
 11.20        4.08427e+00        -4.57559e-02        0.00000e+00        0.00000e+00        0.00000e+00        8.29811e-04 
 11.90        4.08242e+00        -4.94082e-02        0.00000e+00        0.00000e+00        0.00000e+00        8.85987e-04 
 12.60        4.08057e+00        -5.31047e-02        0.00000e+00        0.00000e+00        0.00000e+00        9.41749e-04 
 13.30        4.07871e+00        -5.68442e-02        0.00000e+00        0.00000e+00        0.00000e+00        9.97101e-04 
 14.00        4.07684e+00        -6.06259e-02        0.00000e+00        0.00000e+00        0.00000e+00        1.05205e-03 
 14.70        4.07498e+00        -6.44489e-02        0.00000e+00        0.00000e+00        0.00000e+00        1.10660e-03 
 15.40        4.07310e+00        -6.83120e-02        0.00000e+00        0.00000e+00        0.00000e+00        1.16075e-03 
 16.10        4.07122e+00        -7.22145e-02        0.00000e+00        0.00000e+00        0.00000e+00        1.21452e-03 
 16.80        4.06933e+00        -7.61553e-02        0.00000e+00        0.00000e+00        0.00000e+00        1.26789e-03 
 17.50        4.06744e+00        -8.01335e-02        0.00000e+00        0.00000e+00        0.00000e+00        1.32089e-03 
 18.20        4.06553e+00        -8.41481e-02        0.00000e+00        0.00000e+00        0.00000e+00        1.37351e-03 
 18.90        4.06362e+00        -8.81984e-02        0.00000e+00        0.00000e+00        0.00000e+00        1.42576e-03 
 19.60        4.06170e+00        -9.22832e-02        0.00000e+00        0.00000e+00        0.00000e+00        1.47764e-03 
 20.30        4.05977e+00        -9.64018e-02        0.00000e+00        0.00000e+00        0.00000e+00        1.52916e-03 
 21.00        4.05784e+00        -1.00553e-01        0.00000e+00        0.00000e+00        0.00000e+00        1.58031e-03 
 21.70        4.05589e+00        -1.04737e-01        0.00000e+00        0.00000e+00        0.00000e+00        1.63110e-03 
 22.40        4.05393e+00        -1.08951e-01        0.00000e+00        0.00000e+00        0.00000e+00        1.68154e-03 
 23.10        4.05196e+00        -1.13196e-01        0.00000e+00        0.00000e+00        0.00000e+00        1.73163e-03 
 23.80        4.04998e+00        -1.17469e-01        0.00000e+00        0.00000e+00        0.00000e+00        1.78137e-03 
 24.50        4.04798e+00        -1.21772e-01        0.00000e+00        0.00000e+00        0.00000e+00        1.83077e-03 
 25.20        4.04598e+00        -1.26101e-01        0.00000e+00        0.00000e+00        0.00000e+00        1.87982e-03 
 25.90        4.04396e+00        -1.30458e-01        0.00000e+00        0.00000e+00        0.00000e+00        1.92853e-03 
 26.60        4.04193e+00        -1.34840e-01        0.00000e+00        0.00000e+00        0.00000e+00        1.97691e-03 
 27.30        4.03988e+00        -1.39247e-01        0.00000e+00        0.00000e+00        0.00000e+00        2.02495e-03 
 28.00        4.03782e+00        -1.43678e-01        0.00000e+00        0.00000e+00        0.00000e+00        2.07265e-03 
 28.70        4.03575e+00        -1.48133e-01        0.00000e+00        0.00000e+00        0.00000e+00        2.12003e-03 
 29.40        4.03366e+00        -1.52610e-01        0.00000e+00        0.00000e+00        0.00000e+00        2.16708e-03 
 30.10        4.03155e+00        -1.57109e-01        0.00000e+00        0.00000e+00        0.00000e+00        2.21380e-03 
 30.80        4.02943e+00        -1.61628e-01        0.00000e+00        0.00000e+00        0.00000e+00        2.26020e-03 
 31.50        4.02729e+00        -1.66168e-01        0.00000e+00        0.00000e+00        0.00000e+00        2.30627e-03 
 32.20        4.02514e+00        -1.70726e-01        0.00000e+00        0.00000e+00        0.00000e+00        2.35203e-03 
 32.90        4.02297e+00        -1.75303e-01        0.00000e+00        0.00000e+00        0.00000e+00        2.39746e-03 
 33.60        4.02078e+00        -1.79898e-01        0.00000e+00        0.00000e+00        0.00000e+00        2.44258e-03 
 34.30        4.01857e+00        -1.84509e-01        0.00000e+00        0.00000e+00        0.00000e+00        2.48738e-03 
 35.00        4.01635e+00        -1.89137e-01        0.00000e+00        0.00000e+00        0.00000e+00        2.53187e-03 
 35.70        4.01411e+00        -1.93779e-01        0.00000e+00        0.00000e+00        0.00000e+00        2.57604e-03 
 36.40        4.01184e+00        -1.98436e-01        0.00000e+00        0.00000e+00        0.00000e+00        2.61991e-03 
 37.10        4.00956e+00        -2.03107e-01        0.00000e+00        0.00000e+00        0.00000e+00        2.66346e-03 
 37.80        4.00726e+00        -2.07791e-01        0.00000e+00        0.00000e+00        0.00000e+00        2.70670e-03 
 38.50        4.00494e+00        -2.12486e-01        0.00000e+00        0.00000e+00        0.00000e+00        2.74964e-03 
 39.20        4.00259e+00        -2.17193e-01        0.00000e+00        0.00000e+00        0.00000e+00        2.79227e-03 
 39.90        4.00023e+00        -2.21911e-01        0.00000e+00        0.00000e+00        0.00000e+00        2.83459e-03 
 40.60        3.99784e+00        -2.26639e-01        0.00000e+00        0.00000e+00        0.00000e+00        2.87660e-03 
 41.30        3.99544e+00        -2.31375e-01        0.00000e+00        0.00000e+00        0.00000e+00        2.91831e-03 
 42.00        3.99301e+00        -2.36121e-01        0.00000e+00        0.00000e+00        0.00000e+00        2.95972e-03 
 42.70        3.99055e+00        -2.40873e-01        0.00000e+00        0.00000e+00        0.00000e+00        3.00083e-03 
 43.40        3.98808e+00        -2.45633e-01        0.00000e+00        0.00000e+00        0.00000e+00        3.04163e-03 
 44.10        3.98558e+00        -2.50399e-01        0.00000e+00        0.00000e+00        0.00000e+00        3.08213e-03 
 44.80        3.98306e+00        -2.55171e-01        0.00000e+00        0.00000e+00        0.00000e+00        3.12233e-03 
 45.50        3.98052e+00        -2.59948e-01        0.00000e+00        0.00000e+00        0.00000e+00        3.16223e-03 
 46.20        3.97795e+00        -2.64728e-01        0.00000e+00        0.00000e+00        0.00000e+00        3.20183e-03 
 46.90        3.97536e+00        -2.69512e-01        0.00000e+00        0.00000e+00        0.00000e+00        3.24113e-03 
 47.60        3.97274e+00        -2.74299e-01        0.00000e+00        0.00000e+00        0.00000e+00        3.28013e-03 
 48.30        3.97009e+00        -2.79088e-01        0.00000e+00        0.00000e+00        0.00000e+00        3.31883e-03 
 49.00        3.96743e+00        -2.83879e-01        0.00000e+00        0.00000e+00        0.00000e+00        3.35723e-03 
 49.70        3.96473e+00        -2.88670e-01        0.00000e+00        0.00000e+00        0.00000e+00        3.39534e-03 
 50.40        3.96201e+00        -2.93461e-01        0.00000e+00        0.00000e+00        0.00000e+00        3.43315e-03 
 51.10        3.95927e+00        -2.98252e-01        0.00000e+00        0.00000e+00        0.00000e+00        3.47066e-03 
 51.80        3.95650e+00        -3.03042e-01        0.00000e+00        0.00000e+00        0.00000e+00        3.50787e-03 
 52.50        3.95370e+00        -3.07830e-01        0.00000e+00        0.00000e+00        0.00000e+00        3.54479e-03 
 53.20        3.95088e+00        -3.12615e-01        0.00000e+00        0.00000e+00        0.00000e+00        3.58141e-03 
 53.90        3.94803e+00        -3.17397e-01        0.00000e+00        0.00000e+00        0.00000e+00        3.61774e-03 
 54.60        3.94515e+00        -3.22176e-01        0.00000e+00        0.00000e+00        0.00000e+00        3.65377e-03 
 55.30        3.94224e+00        -3.26950e-01        0.00000e+00        0.00000e+00        0.00000e+00        3.68950e-03 
 56.00        3.93931e+00        -3.31719e-01        0.00000e+00        0.00000e+00        0.00000e+00        3.72494e-03 
 56.70        3.93635e+00        -3.36483e-01        0.00000e+00        0.00000e+00        0.00000e+00        3.76008e-03 
 57.40        3.93336e+00        -3.41241e-01        0.00000e+00        0.00000e+00        0.00000e+00        3.79493e-03 
 58.10        3.93034e+00        -3.45992e-01        0.00000e+00        0.00000e+00        0.00000e+00        3.82948e-03 
 58.80        3.92730e+00        -3.50735e-01        0.00000e+00        0.00000e+00        0.00000e+00        3.86374e-03 
 59.50        3.92422e+00        -3.55471e-01        0.00000e+00        0.00000e+00        0.00000e+00        3.89770e-03 
 60.20        3.92112e+00        -3.60198e-01        0.00000e+00        0.00000e+00        0.00000e+00        3.93137e-03 
 60.90        3.91799e+00        -3.64917e-01        0.00000e+00        0.00000e+00        0.00000e+00        3.96474e-03 
 61.60        3.91483e+00        -3.69626e-01        0.00000e+00        0.00000e+00        0.00000e+00        3.99782e-03 
 62.30        3.91164e+00        -3.74324e-01        0.00000e+00        0.00000e+00        0.00000e+00        4.03061e-03 
 63.00        3.90842e+00        -3.79013e-01        0.00000e+00        0.00000e+00        0.00000e+00        4.06310e-03 
 63.70        3.90517e+00        -3.83690e-01        0.00000e+00        0.00000e+00        0.00000e+00        4.09529e-03 
 64.40        3.90190e+00        -3.88355e-01        0.00000e+00        0.00000e+00        0.00000e+00        4.12719e-03 
 65.10        3.89859e+00        -3.93008e-01        0.00000e+00        0.00000e+00        0.00000e+00        4.15880e-03 
 65.80        3.89525e+00        -3.97649e-01        0.00000e+00        0.00000e+00        0.00000e+00        4.19011e-03 
 66.50        3.89189e+00        -4.02276e-01        0.00000e+00        0.00000e+00        0.00000e+00        4.22114e-03 
 67.20        3.88849e+00        -4.06889e-01        0.00000e+00        0.00000e+00        0.00000e+00        4.25186e-03 
 67.90        3.88507e+00        -4.11489e-01        0.00000e+00        0.00000e+00        0.00000e+00        4.28230e-03 
 68.60        3.88161e+00        -4.16074e-01        0.00000e+00        0.00000e+00        0.00000e+00        4.31244e-03 
 69.30        3.87813e+00        -4.20643e-01        0.00000e+00        0.00000e+00        0.00000e+00        4.34229e-03 
 70.00        3.87461e+00        -4.25197e-01        0.00000e+00        0.00000e+00        0.00000e+00        4.37184e-03 
 70.70        3.87107e+00        -4.29735e-01        0.00000e+00        0.00000e+00        0.00000e+00        4.40110e-03 
 71.40        3.86749e+00        -4.34257e-01        0.00000e+00        0.00000e+00        0.00000e+00        4.43007e-03 
 72.10        3.86389e+00        -4.38761e-01        0.00000e+00        0.00000e+00        0.00000e+00        4.45875e-03 
 72.80        3.86025e+00        -4.43249e-01        0.00000e+00        0.00000e+00        0.00000e+00        4.48714e-03 
 73.50        3.85659e+00        -4.47718e-01        0.00000e+00        0.00000e+00        0.00000e+00        4.51523e-03 
 74.20        3.85289e+00        -4.52169e-01        0.00000e+00        0.00000e+00        0.00000e+00        4.54304e-03 
 74.90        3.84916e+00        -4.56602e-01        0.00000e+00        0.00000e+00        0.00000e+00        4.57055e-03 
 75.60        3.84541e+00        -4.61016e-01        0.00000e+00        0.00000e+00        0.00000e+00        4.59777e-03 
 76.30        3.84162e+00        -4.65410e-01        0.00000e+00        0.00000e+00        0.00000e+00        4.62470e-03 
 77.00        3.83781e+00        -4.69784e-01        0.00000e+00        0.00000e+00        0.00000e+00        4.65135e-03 
 77.70        3.83396e+00        -4.74138e-01        0.00000e+00        0.00000e+00        0.00000e+00        4.67770e-03 
 78.40        3.83009e+00        -4.78472e-01        0.00000e+00        0.00000e+00        0.00000e+00        4.70376e-03 
 79.10        3.82618e+00        -4.82785e-01        0.00000e+00        0.00000e+00        0.00000e+00        4.72953e-03 
 79.80        3.82225e+00        -4.87076e-01        0.00000e+00        0.00000e+00        0.00000e+00        4.75502e-03 
 80.50        3.81828e+00        -4.91346e-01        0.00000e+00        0.00000e+00        0.00000e+00        4.78021e-03 
 81.20        3.81429e+00        -4.95594e-01        0.00000e+00        0.00000e+00        0.00000e+00        4.80512e-03 
 81.90        3.81026e+00        -4.99820e-01        0.00000e+00        0.00000e+00        0.00000e+00        4.82975e-03 
 82.60        3.80621e+00        -5.04023e-01        0.00000e+00        0.00000e+00        0.00000e+00        4.85408e-03 
 83.30        3.80212e+00        -5.08203e-01        0.00000e+00        0.00000e+00        0.00000e+00        4.87813e-03 
 84.00        3.79801e+00        -5.12360e-01        0.00000e+00        0.00000e+00        0.00000e+00        4.90189e-03 
 84.70        3.79387e+00        -5.16493e-01        0.00000e+00        0.00000e+00        0.00000e+00        4.92537e-03 
 85.40        3.78970e+00        -5.20602e-01        0.00000e+00        0.00000e+00        0.00000e+00        4.94857e-03 
 86.10        3.78550e+00        -5.24688e-01        0.00000e+00        0.00000e+00        0.00000e+00        4.97148e-03 
 86.80        3.78127e+00        -5.28749e-01        0.00000e+00        0.00000e+00        0.00000e+00        4.99410e-03 
 87.50        3.77701e+00        -5.32785e-01        0.00000e+00        0.00000e+00        0.00000e+00        5.01645e-03 
 88.20        3.77273e+00        -5.36796e-01        0.00000e+00        0.00000e+00        0.00000e+00        5.03851e-03 
 88.90        3.76841e+00        -5.40782e-01        0.00000e+00        0.00000e+00        0.00000e+00        5.06029e-03 
 89.60        3.76407e+00        -5.44743e-01        0.00000e+00        0.00000e+00        0.00000e+00        5.08180e-03 
 90.30        3.75970e+00        -5.48677e-01        0.00000e+00        0.00000e+00        0.00000e+00        5.10302e-03 
 91.00        3.75530e+00        -5.52586e-01        0.00000e+00        0.00000e+00        0.00000e+00        5.12396e-03 
 91.70        3.75088e+00        -5.56469e-01        0.00000e+00        0.00000e+00        0.00000e+00        5.14462e-03 
 92.40        3.74642e+00        -5.60326e-01        0.00000e+00        0.00000e+00        0.00000e+00        5.16501e-03 
 93.10        3.74194e+00        -5.64155e-01        0.00000e+00        0.00000e+00        0.00000e+00        5.18512e-03 
 93.80        3.73743e+00        -5.67958e-01        0.00000e+00        0.00000e+00        0.00000e+00        5.20496e-03 
 94.50        3.73290e+00        -5.71734e-01        0.00000e+00        0.00000e+00        0.00000e+00        5.22452e-03 
 95.20        3.72834e+00        -5.75483e-01        0.00000e+00        0.00000e+00        0.00000e+00        5.24380e-03 
 95.90        3.72375e+00        -5.79205e-01        0.00000e+00        0.00000e+00        0.00000e+00        5.26282e-03 
 96.60        3.71913e+00        -5.82899e-01        0.00000e+00        0.00000e+00        0.00000e+00        5.28156e-03 
 97.30        3.71449e+00        -5.86565e-01        0.00000e+00        0.00000e+00        0.00000e+00        5.30003e-03 
 98.00        3.70982e+00        -5.90203e-01        0.00000e+00        0.00000e+00        0.00000e+00        5.31823e-03 
 98.70        3.70513e+00        -5.93813e-01        0.00000e+00        0.00000e+00        0.00000e+00        5.33616e-03 
 99.40        3.70041e+00        -5.97395e-01        0.00000e+00        0.00000e+00        0.00000e+00        5.35383e-03 
 100.10        3.69567e+00        -6.00949e-01        0.00000e+00        0.00000e+00        0.00000e+00        5.37123e-03 
 100.80        3.69090e+00        -6.04474e-01        0.00000e+00        0.00000e+00        0.00000e+00        5.38836e-03 
 101.50        3.68611e+00        -6.07971e-01        0.00000e+00        0.00000e+00        0.00000e+00        5.40522e-03 
 102.20        3.68129e+00        -6.11439e-01        0.00000e+00        0.00000e+00        0.00000e+00        5.42183e-03 
 102.90        3.67645e+00        -6.14878e-01        0.00000e+00        0.00000e+00        0.00000e+00        5.43817e-03 
 103.60        3.67158e+00        -6.18288e-01        0.00000e+00        0.00000e+00        0.00000e+00        5.45425e-03 
 104.30        3.66669e+00        -6.21669e-01        0.00000e+00        0.00000e+00        0.00000e+00        5.47007e-03 
 105.00        3.66177e+00        -6.25021e-01        0.00000e+00        0.00000e+00        0.00000e+00        5.48563e-03 
 105.70        3.65684e+00        -6.28344e-01        0.00000e+00        0.00000e+00        0.00000e+00        5.50093e-03 
 106.40        3.65188e+00        -6.31637e-01        0.00000e+00        0.00000e+00        0.00000e+00        5.51598e-03 
 107.10        3.64689e+00        -6.34901e-01        0.00000e+00        0.00000e+00        0.00000e+00        5.53077e-03 
 107.80        3.64189e+00        -6.38136e-01        0.00000e+00        0.00000e+00        0.00000e+00        5.54531e-03 
 108.50        3.63686e+00        -6.41341e-01        0.00000e+00        0.00000e+00        0.00000e+00        5.55960e-03 
 109.20        3.63181e+00        -6.44516e-01        0.00000e+00        0.00000e+00        0.00000e+00        5.57363e-03 
 109.90        3.62674e+00        -6.47662e-01        0.00000e+00        0.00000e+00        0.00000e+00        5.58742e-03 
 110.60        3.62165e+00        -6.50778e-01        0.00000e+00        0.00000e+00        0.00000e+00        5.60096e-03 
 111.30        3.61653e+00        -6.53864e-01        0.00000e+00        0.00000e+00        0.00000e+00        5.61425e-03 
 112.00        3.61140e+00        -6.56920e-01        0.00000e+00        0.00000e+00        0.00000e+00        5.62729e-03 
