#Navio B MarAd
#Manobra de Curva Giro
#
#Velocidade Sistema Solidário 
#
#temp           u           v           w    dot roll   dot pitch     dot yaw 
 0.00        4.11000e+00        0.00000e+00        0.00000e+00        0.00000e+00        0.00000e+00        0.00000e+00 
 0.70        4.11000e+00        8.64984e-05        0.00000e+00        0.00000e+00        0.00000e+00        -1.86400e-06 
 1.40        4.11000e+00        1.74827e-04        0.00000e+00        0.00000e+00        0.00000e+00        -3.71374e-06 
 2.10        4.10816e+00        -2.75242e-03        0.00000e+00        0.00000e+00        0.00000e+00        5.89500e-05 
 2.80        4.10632e+00        -5.73931e-03        0.00000e+00        0.00000e+00        0.00000e+00        1.21102e-04 
 3.50        4.10448e+00        -8.78475e-03        0.00000e+00        0.00000e+00        0.00000e+00        1.82750e-04 
 4.20        4.10265e+00        -1.18877e-02        0.00000e+00        0.00000e+00        0.00000e+00        2.43903e-04 
 4.90        4.10081e+00        -1.50470e-02        0.00000e+00        0.00000e+00        0.00000e+00        3.04570e-04 
 5.60        4.09898e+00        -1.82616e-02        0.00000e+00        0.00000e+00        0.00000e+00        3.64756e-04 
 6.30        4.09714e+00        -2.15305e-02        0.00000e+00        0.00000e+00        0.00000e+00        4.24471e-04 
 7.00        4.09531e+00        -2.48527e-02        0.00000e+00        0.00000e+00        0.00000e+00        4.83722e-04 
 7.70        4.09347e+00        -2.82271e-02        0.00000e+00        0.00000e+00        0.00000e+00        5.42515e-04 
 8.40        4.09164e+00        -3.16527e-02        0.00000e+00        0.00000e+00        0.00000e+00        6.00858e-04 
 9.10        4.08980e+00        -3.51284e-02        0.00000e+00        0.00000e+00        0.00000e+00        6.58756e-04 
 9.80        4.08796e+00        -3.86533e-02        0.00000e+00        0.00000e+00        0.00000e+00        7.16217e-04 
 10.50        4.08612e+00        -4.22264e-02        0.00000e+00        0.00000e+00        0.00000e+00        7.73247e-04 
 11.20        4.08427e+00        -4.58467e-02        0.00000e+00        0.00000e+00        0.00000e+00        8.29852e-04 
 11.90        4.08242e+00        -4.95131e-02        0.00000e+00        0.00000e+00        0.00000e+00        8.86038e-04 
 12.60        4.08057e+00        -5.32248e-02        0.00000e+00        0.00000e+00        0.00000e+00        9.41809e-04 
 13.30        4.07871e+00        -5.69808e-02        0.00000e+00        0.00000e+00        0.00000e+00        9.97173e-04 
 14.00        4.07684e+00        -6.07800e-02        0.00000e+00        0.00000e+00        0.00000e+00        1.05213e-03 
 14.70        4.07497e+00        -6.46217e-02        0.00000e+00        0.00000e+00        0.00000e+00        1.10670e-03 
 15.40        4.07310e+00        -6.85047e-02        0.00000e+00        0.00000e+00        0.00000e+00        1.16087e-03 
 16.10        4.07122e+00        -7.24282e-02        0.00000e+00        0.00000e+00        0.00000e+00        1.21465e-03 
 16.80        4.06933e+00        -7.63913e-02        0.00000e+00        0.00000e+00        0.00000e+00        1.26804e-03 
 17.50        4.06744e+00        -8.03930e-02        0.00000e+00        0.00000e+00        0.00000e+00        1.32106e-03 
 18.20        4.06553e+00        -8.44324e-02        0.00000e+00        0.00000e+00        0.00000e+00        1.37371e-03 
 18.90        4.06362e+00        -8.85086e-02        0.00000e+00        0.00000e+00        0.00000e+00        1.42598e-03 
 19.60        4.06170e+00        -9.26208e-02        0.00000e+00        0.00000e+00        0.00000e+00        1.47788e-03 
 20.30        4.05977e+00        -9.67679e-02        0.00000e+00        0.00000e+00        0.00000e+00        1.52942e-03 
 21.00        4.05783e+00        -1.00949e-01        0.00000e+00        0.00000e+00        0.00000e+00        1.58061e-03 
 21.70        4.05588e+00        -1.05164e-01        0.00000e+00        0.00000e+00        0.00000e+00        1.63143e-03 
 22.40        4.05392e+00        -1.09410e-01        0.00000e+00        0.00000e+00        0.00000e+00        1.68191e-03 
 23.10        4.05195e+00        -1.13689e-01        0.00000e+00        0.00000e+00        0.00000e+00        1.73203e-03 
 23.80        4.04997e+00        -1.17998e-01        0.00000e+00        0.00000e+00        0.00000e+00        1.78181e-03 
 24.50        4.04797e+00        -1.22336e-01        0.00000e+00        0.00000e+00        0.00000e+00        1.83124e-03 
 25.20        4.04597e+00        -1.26704e-01        0.00000e+00        0.00000e+00        0.00000e+00        1.88034e-03 
 25.90        4.04395e+00        -1.31100e-01        0.00000e+00        0.00000e+00        0.00000e+00        1.92909e-03 
 26.60        4.04191e+00        -1.35523e-01        0.00000e+00        0.00000e+00        0.00000e+00        1.97751e-03 
 27.30        4.03987e+00        -1.39972e-01        0.00000e+00        0.00000e+00        0.00000e+00        2.02560e-03 
 28.00        4.03780e+00        -1.44446e-01        0.00000e+00        0.00000e+00        0.00000e+00        2.07336e-03 
 28.70        4.03573e+00        -1.48946e-01        0.00000e+00        0.00000e+00        0.00000e+00        2.12078e-03 
 29.40        4.03364e+00        -1.53469e-01        0.00000e+00        0.00000e+00        0.00000e+00        2.16789e-03 
 30.10        4.03153e+00        -1.58016e-01        0.00000e+00        0.00000e+00        0.00000e+00        2.21467e-03 
 30.80        4.02941e+00        -1.62584e-01        0.00000e+00        0.00000e+00        0.00000e+00        2.26112e-03 
 31.50        4.02727e+00        -1.67174e-01        0.00000e+00        0.00000e+00        0.00000e+00        2.30726e-03 
 32.20        4.02511e+00        -1.71785e-01        0.00000e+00        0.00000e+00        0.00000e+00        2.35308e-03 
 32.90        4.02294e+00        -1.76415e-01        0.00000e+00        0.00000e+00        0.00000e+00        2.39858e-03 
 33.60        4.02074e+00        -1.81065e-01        0.00000e+00        0.00000e+00        0.00000e+00        2.44377e-03 
 34.30        4.01854e+00        -1.85733e-01        0.00000e+00        0.00000e+00        0.00000e+00        2.48865e-03 
 35.00        4.01631e+00        -1.90418e-01        0.00000e+00        0.00000e+00        0.00000e+00        2.53321e-03 
 35.70        4.01406e+00        -1.95120e-01        0.00000e+00        0.00000e+00        0.00000e+00        2.57746e-03 
 36.40        4.01179e+00        -1.99838e-01        0.00000e+00        0.00000e+00        0.00000e+00        2.62140e-03 
 37.10        4.00951e+00        -2.04571e-01        0.00000e+00        0.00000e+00        0.00000e+00        2.66504e-03 
 37.80        4.00720e+00        -2.09319e-01        0.00000e+00        0.00000e+00        0.00000e+00        2.70837e-03 
 38.50        4.00487e+00        -2.14080e-01        0.00000e+00        0.00000e+00        0.00000e+00        2.75139e-03 
 39.20        4.00252e+00        -2.18854e-01        0.00000e+00        0.00000e+00        0.00000e+00        2.79411e-03 
 39.90        4.00015e+00        -2.23640e-01        0.00000e+00        0.00000e+00        0.00000e+00        2.83652e-03 
 40.60        3.99776e+00        -2.28438e-01        0.00000e+00        0.00000e+00        0.00000e+00        2.87863e-03 
 41.30        3.99535e+00        -2.33246e-01        0.00000e+00        0.00000e+00        0.00000e+00        2.92044e-03 
 42.00        3.99291e+00        -2.38064e-01        0.00000e+00        0.00000e+00        0.00000e+00        2.96195e-03 
 42.70        3.99045e+00        -2.42892e-01        0.00000e+00        0.00000e+00        0.00000e+00        3.00315e-03 
 43.40        3.98797e+00        -2.47728e-01        0.00000e+00        0.00000e+00        0.00000e+00        3.04406e-03 
 44.10        3.98547e+00        -2.52571e-01        0.00000e+00        0.00000e+00        0.00000e+00        3.08467e-03 
 44.80        3.98294e+00        -2.57422e-01        0.00000e+00        0.00000e+00        0.00000e+00        3.12498e-03 
 45.50        3.98039e+00        -2.62279e-01        0.00000e+00        0.00000e+00        0.00000e+00        3.16499e-03 
 46.20        3.97781e+00        -2.67142e-01        0.00000e+00        0.00000e+00        0.00000e+00        3.20470e-03 
 46.90        3.97521e+00        -2.72010e-01        0.00000e+00        0.00000e+00        0.00000e+00        3.24412e-03 
 47.60        3.97258e+00        -2.76882e-01        0.00000e+00        0.00000e+00        0.00000e+00        3.28324e-03 
 48.30        3.96993e+00        -2.81758e-01        0.00000e+00        0.00000e+00        0.00000e+00        3.32206e-03 
 49.00        3.96725e+00        -2.86636e-01        0.00000e+00        0.00000e+00        0.00000e+00        3.36059e-03 
 49.70        3.96454e+00        -2.91517e-01        0.00000e+00        0.00000e+00        0.00000e+00        3.39882e-03 
 50.40        3.96181e+00        -2.96400e-01        0.00000e+00        0.00000e+00        0.00000e+00        3.43676e-03 
 51.10        3.95906e+00        -3.01283e-01        0.00000e+00        0.00000e+00        0.00000e+00        3.47440e-03 
 51.80        3.95627e+00        -3.06167e-01        0.00000e+00        0.00000e+00        0.00000e+00        3.51174e-03 
 52.50        3.95346e+00        -3.11050e-01        0.00000e+00        0.00000e+00        0.00000e+00        3.54879e-03 
 53.20        3.95063e+00        -3.15933e-01        0.00000e+00        0.00000e+00        0.00000e+00        3.58555e-03 
 53.90        3.94776e+00        -3.20813e-01        0.00000e+00        0.00000e+00        0.00000e+00        3.62201e-03 
 54.60        3.94487e+00        -3.25692e-01        0.00000e+00        0.00000e+00        0.00000e+00        3.65818e-03 
 55.30        3.94195e+00        -3.30567e-01        0.00000e+00        0.00000e+00        0.00000e+00        3.69406e-03 
 56.00        3.93900e+00        -3.35440e-01        0.00000e+00        0.00000e+00        0.00000e+00        3.72964e-03 
 56.70        3.93602e+00        -3.40308e-01        0.00000e+00        0.00000e+00        0.00000e+00        3.76493e-03 
 57.40        3.93302e+00        -3.45171e-01        0.00000e+00        0.00000e+00        0.00000e+00        3.79992e-03 
 58.10        3.92998e+00        -3.50029e-01        0.00000e+00        0.00000e+00        0.00000e+00        3.83462e-03 
 58.80        3.92692e+00        -3.54881e-01        0.00000e+00        0.00000e+00        0.00000e+00        3.86903e-03 
 59.50        3.92382e+00        -3.59727e-01        0.00000e+00        0.00000e+00        0.00000e+00        3.90314e-03 
 60.20        3.92070e+00        -3.64565e-01        0.00000e+00        0.00000e+00        0.00000e+00        3.93696e-03 
 60.90        3.91755e+00        -3.69396e-01        0.00000e+00        0.00000e+00        0.00000e+00        3.97049e-03 
 61.60        3.91437e+00        -3.74219e-01        0.00000e+00        0.00000e+00        0.00000e+00        4.00372e-03 
 62.30        3.91116e+00        -3.79033e-01        0.00000e+00        0.00000e+00        0.00000e+00        4.03666e-03 
 63.00        3.90792e+00        -3.83838e-01        0.00000e+00        0.00000e+00        0.00000e+00        4.06931e-03 
 63.70        3.90465e+00        -3.88633e-01        0.00000e+00        0.00000e+00        0.00000e+00        4.10166e-03 
 64.40        3.90135e+00        -3.93417e-01        0.00000e+00        0.00000e+00        0.00000e+00        4.13372e-03 
 65.10        3.89802e+00        -3.98191e-01        0.00000e+00        0.00000e+00        0.00000e+00        4.16549e-03 
 65.80        3.89466e+00        -4.02953e-01        0.00000e+00        0.00000e+00        0.00000e+00        4.19697e-03 
 66.50        3.89126e+00        -4.07704e-01        0.00000e+00        0.00000e+00        0.00000e+00        4.22815e-03 
 67.20        3.88784e+00        -4.12441e-01        0.00000e+00        0.00000e+00        0.00000e+00        4.25904e-03 
 67.90        3.88439e+00        -4.17166e-01        0.00000e+00        0.00000e+00        0.00000e+00        4.28964e-03 
 68.60        3.88091e+00        -4.21878e-01        0.00000e+00        0.00000e+00        0.00000e+00        4.31994e-03 
 69.30        3.87739e+00        -4.26575e-01        0.00000e+00        0.00000e+00        0.00000e+00        4.34996e-03 
 70.00        3.87385e+00        -4.31258e-01        0.00000e+00        0.00000e+00        0.00000e+00        4.37968e-03 
 70.70        3.87027e+00        -4.35926e-01        0.00000e+00        0.00000e+00        0.00000e+00        4.40910e-03 
 71.40        3.86666e+00        -4.40579e-01        0.00000e+00        0.00000e+00        0.00000e+00        4.43824e-03 
 72.10        3.86303e+00        -4.45216e-01        0.00000e+00        0.00000e+00        0.00000e+00        4.46708e-03 
 72.80        3.85936e+00        -4.49837e-01        0.00000e+00        0.00000e+00        0.00000e+00        4.49563e-03 
 73.50        3.85566e+00        -4.54441e-01        0.00000e+00        0.00000e+00        0.00000e+00        4.52389e-03 
 74.20        3.85193e+00        -4.59028e-01        0.00000e+00        0.00000e+00        0.00000e+00        4.55186e-03 
 74.90        3.84816e+00        -4.63597e-01        0.00000e+00        0.00000e+00        0.00000e+00        4.57954e-03 
 75.60        3.84437e+00        -4.68148e-01        0.00000e+00        0.00000e+00        0.00000e+00        4.60693e-03 
 76.30        3.84055e+00        -4.72681e-01        0.00000e+00        0.00000e+00        0.00000e+00        4.63402e-03 
 77.00        3.83669e+00        -4.77195e-01        0.00000e+00        0.00000e+00        0.00000e+00        4.66083e-03 
 77.70        3.83281e+00        -4.81690e-01        0.00000e+00        0.00000e+00        0.00000e+00        4.68734e-03 
 78.40        3.82889e+00        -4.86165e-01        0.00000e+00        0.00000e+00        0.00000e+00        4.71357e-03 
 79.10        3.82494e+00        -4.90620e-01        0.00000e+00        0.00000e+00        0.00000e+00        4.73950e-03 
 79.80        3.82096e+00        -4.95055e-01        0.00000e+00        0.00000e+00        0.00000e+00        4.76515e-03 
 80.50        3.81696e+00        -4.99469e-01        0.00000e+00        0.00000e+00        0.00000e+00        4.79050e-03 
 81.20        3.81292e+00        -5.03861e-01        0.00000e+00        0.00000e+00        0.00000e+00        4.81557e-03 
 81.90        3.80885e+00        -5.08233e-01        0.00000e+00        0.00000e+00        0.00000e+00        4.84035e-03 
 82.60        3.80474e+00        -5.12582e-01        0.00000e+00        0.00000e+00        0.00000e+00        4.86484e-03 
 83.30        3.80061e+00        -5.16910e-01        0.00000e+00        0.00000e+00        0.00000e+00        4.88905e-03 
 84.00        3.79645e+00        -5.21215e-01        0.00000e+00        0.00000e+00        0.00000e+00        4.91297e-03 
 84.70        3.79226e+00        -5.25497e-01        0.00000e+00        0.00000e+00        0.00000e+00        4.93660e-03 
 85.40        3.78804e+00        -5.29755e-01        0.00000e+00        0.00000e+00        0.00000e+00        4.95994e-03 
 86.10        3.78379e+00        -5.33991e-01        0.00000e+00        0.00000e+00        0.00000e+00        4.98300e-03 
 86.80        3.77950e+00        -5.38203e-01        0.00000e+00        0.00000e+00        0.00000e+00        5.00578e-03 
 87.50        3.77519e+00        -5.42390e-01        0.00000e+00        0.00000e+00        0.00000e+00        5.02827e-03 
 88.20        3.77085e+00        -5.46554e-01        0.00000e+00        0.00000e+00        0.00000e+00        5.05047e-03 
 88.90        3.76648e+00        -5.50692e-01        0.00000e+00        0.00000e+00        0.00000e+00        5.07240e-03 
 89.60        3.76208e+00        -5.54806e-01        0.00000e+00        0.00000e+00        0.00000e+00        5.09404e-03 
 90.30        3.75765e+00        -5.58895e-01        0.00000e+00        0.00000e+00        0.00000e+00        5.11540e-03 
 91.00        3.75319e+00        -5.62958e-01        0.00000e+00        0.00000e+00        0.00000e+00        5.13648e-03 
 91.70        3.74871e+00        -5.66995e-01        0.00000e+00        0.00000e+00        0.00000e+00        5.15727e-03 
 92.40        3.74419e+00        -5.71007e-01        0.00000e+00        0.00000e+00        0.00000e+00        5.17779e-03 
 93.10        3.73965e+00        -5.74992e-01        0.00000e+00        0.00000e+00        0.00000e+00        5.19803e-03 
 93.80        3.73508e+00        -5.78951e-01        0.00000e+00        0.00000e+00        0.00000e+00        5.21799e-03 
 94.50        3.73047e+00        -5.82884e-01        0.00000e+00        0.00000e+00        0.00000e+00        5.23768e-03 
 95.20        3.72585e+00        -5.86789e-01        0.00000e+00        0.00000e+00        0.00000e+00        5.25708e-03 
 95.90        3.72119e+00        -5.90668e-01        0.00000e+00        0.00000e+00        0.00000e+00        5.27622e-03 
 96.60        3.71651e+00        -5.94519e-01        0.00000e+00        0.00000e+00        0.00000e+00        5.29507e-03 
 97.30        3.71180e+00        -5.98343e-01        0.00000e+00        0.00000e+00        0.00000e+00        5.31365e-03 
 98.00        3.70706e+00        -6.02140e-01        0.00000e+00        0.00000e+00        0.00000e+00        5.33196e-03 
 98.70        3.70229e+00        -6.05908e-01        0.00000e+00        0.00000e+00        0.00000e+00        5.35000e-03 
 99.40        3.69750e+00        -6.09649e-01        0.00000e+00        0.00000e+00        0.00000e+00        5.36777e-03 
 100.10        3.69268e+00        -6.13361e-01        0.00000e+00        0.00000e+00        0.00000e+00        5.38527e-03 
 100.80        3.68784e+00        -6.17045e-01        0.00000e+00        0.00000e+00        0.00000e+00        5.40249e-03 
 101.50        3.68297e+00        -6.20701e-01        0.00000e+00        0.00000e+00        0.00000e+00        5.41945e-03 
 102.20        3.67807e+00        -6.24328e-01        0.00000e+00        0.00000e+00        0.00000e+00        5.43615e-03 
 102.90        3.67315e+00        -6.27926e-01        0.00000e+00        0.00000e+00        0.00000e+00        5.45258e-03 
 103.60        3.66820e+00        -6.31496e-01        0.00000e+00        0.00000e+00        0.00000e+00        5.46874e-03 
 104.30        3.66323e+00        -6.35036e-01        0.00000e+00        0.00000e+00        0.00000e+00        5.48464e-03 
 105.00        3.65824e+00        -6.38547e-01        0.00000e+00        0.00000e+00        0.00000e+00        5.50027e-03 
 105.70        3.65322e+00        -6.42029e-01        0.00000e+00        0.00000e+00        0.00000e+00        5.51565e-03 
 106.40        3.64817e+00        -6.45482e-01        0.00000e+00        0.00000e+00        0.00000e+00        5.53076e-03 
 107.10        3.64310e+00        -6.48906e-01        0.00000e+00        0.00000e+00        0.00000e+00        5.54562e-03 
 107.80        3.63801e+00        -6.52299e-01        0.00000e+00        0.00000e+00        0.00000e+00        5.56022e-03 
 108.50        3.63290e+00        -6.55664e-01        0.00000e+00        0.00000e+00        0.00000e+00        5.57456e-03 
 109.20        3.62776e+00        -6.58998e-01        0.00000e+00        0.00000e+00        0.00000e+00        5.58865e-03 
 109.90        3.62260e+00        -6.62303e-01        0.00000e+00        0.00000e+00        0.00000e+00        5.60248e-03 
 110.60        3.61741e+00        -6.65578e-01        0.00000e+00        0.00000e+00        0.00000e+00        5.61606e-03 
 111.30        3.61221e+00        -6.68823e-01        0.00000e+00        0.00000e+00        0.00000e+00        5.62939e-03 
 112.00        3.60698e+00        -6.72038e-01        0.00000e+00        0.00000e+00        0.00000e+00        5.64248e-03 
