#Navio B MarAd
#Manobra de Curva Giro
#
#Velocidade Inercial
#
#temp           u           v           r
 0.00        4.11000e+00        0.00000e+00        0.00000e+00 
 0.70        4.11000e+00        8.38136e-05        0.00000e+00 
 1.40        4.11000e+00        1.64115e-04        0.00000e+00 
 2.10        4.10761e+00        -2.68337e-03        0.00000e+00 
 2.80        4.10522e+00        -5.41082e-03        0.00000e+00 
 3.50        4.10283e+00        -8.01891e-03        0.00000e+00 
 4.20        4.10045e+00        -1.05083e-02        0.00000e+00 
 4.90        4.09807e+00        -1.28797e-02        0.00000e+00 
 5.60        4.09570e+00        -1.51336e-02        0.00000e+00 
 6.30        4.09332e+00        -1.72707e-02        0.00000e+00 
 7.00        4.09095e+00        -1.92915e-02        0.00000e+00 
 7.70        4.08859e+00        -2.11968e-02        0.00000e+00 
 8.40        4.08623e+00        -2.29870e-02        0.00000e+00 
 9.10        4.08386e+00        -2.46626e-02        0.00000e+00 
 9.80        4.08151e+00        -2.62243e-02        0.00000e+00 
 10.50        4.07915e+00        -2.76726e-02        0.00000e+00 
 11.20        4.07680e+00        -2.90080e-02        0.00000e+00 
 11.90        4.07444e+00        -3.02310e-02        0.00000e+00 
 12.60        4.07209e+00        -3.13420e-02        0.00000e+00 
 13.30        4.06974e+00        -3.23417e-02        0.00000e+00 
 14.00        4.06739e+00        -3.32304e-02        0.00000e+00 
 14.70        4.06505e+00        -3.40087e-02        0.00000e+00 
 15.40        4.06270e+00        -3.46770e-02        0.00000e+00 
 16.10        4.06035e+00        -3.52357e-02        0.00000e+00 
 16.80        4.05800e+00        -3.56854e-02        0.00000e+00 
 17.50        4.05565e+00        -3.60265e-02        0.00000e+00 
 18.20        4.05330e+00        -3.62593e-02        0.00000e+00 
 18.90        4.05095e+00        -3.63844e-02        0.00000e+00 
 19.60        4.04860e+00        -3.64021e-02        0.00000e+00 
 20.30        4.04625e+00        -3.63130e-02        0.00000e+00 
 21.00        4.04389e+00        -3.61173e-02        0.00000e+00 
 21.70        4.04153e+00        -3.58155e-02        0.00000e+00 
 22.40        4.03917e+00        -3.54081e-02        0.00000e+00 
 23.10        4.03680e+00        -3.48954e-02        0.00000e+00 
 23.80        4.03443e+00        -3.42779e-02        0.00000e+00 
 24.50        4.03205e+00        -3.35559e-02        0.00000e+00 
 25.20        4.02967e+00        -3.27298e-02        0.00000e+00 
 25.90        4.02729e+00        -3.18001e-02        0.00000e+00 
 26.60        4.02490e+00        -3.07672e-02        0.00000e+00 
 27.30        4.02250e+00        -2.96314e-02        0.00000e+00 
 28.00        4.02009e+00        -2.83932e-02        0.00000e+00 
 28.70        4.01768e+00        -2.70529e-02        0.00000e+00 
 29.40        4.01526e+00        -2.56109e-02        0.00000e+00 
 30.10        4.01284e+00        -2.40678e-02        0.00000e+00 
 30.80        4.01040e+00        -2.24238e-02        0.00000e+00 
 31.50        4.00795e+00        -2.06793e-02        0.00000e+00 
 32.20        4.00550e+00        -1.88349e-02        0.00000e+00 
 32.90        4.00304e+00        -1.68908e-02        0.00000e+00 
 33.60        4.00056e+00        -1.48475e-02        0.00000e+00 
 34.30        3.99807e+00        -1.27055e-02        0.00000e+00 
 35.00        3.99557e+00        -1.04651e-02        0.00000e+00 
 35.70        3.99306e+00        -8.12677e-03        0.00000e+00 
 36.40        3.99054e+00        -5.69094e-03        0.00000e+00 
 37.10        3.98800e+00        -3.15804e-03        0.00000e+00 
 37.80        3.98545e+00        -5.28510e-04        0.00000e+00 
 38.50        3.98289e+00        2.19721e-03        0.00000e+00 
 39.20        3.98031e+00        5.01866e-03        0.00000e+00 
 39.90        3.97771e+00        7.93539e-03        0.00000e+00 
 40.60        3.97510e+00        1.09470e-02        0.00000e+00 
 41.30        3.97247e+00        1.40529e-02        0.00000e+00 
 42.00        3.96983e+00        1.72527e-02        0.00000e+00 
 42.70        3.96717e+00        2.05459e-02        0.00000e+00 
 43.40        3.96449e+00        2.39320e-02        0.00000e+00 
 44.10        3.96179e+00        2.74105e-02        0.00000e+00 
 44.80        3.95907e+00        3.09810e-02        0.00000e+00 
 45.50        3.95633e+00        3.46429e-02        0.00000e+00 
 46.20        3.95357e+00        3.83956e-02        0.00000e+00 
 46.90        3.95079e+00        4.22388e-02        0.00000e+00 
 47.60        3.94798e+00        4.61718e-02        0.00000e+00 
 48.30        3.94516e+00        5.01941e-02        0.00000e+00 
 49.00        3.94231e+00        5.43052e-02        0.00000e+00 
 49.70        3.93944e+00        5.85045e-02        0.00000e+00 
 50.40        3.93654e+00        6.27914e-02        0.00000e+00 
 51.10        3.93362e+00        6.71654e-02        0.00000e+00 
 51.80        3.93068e+00        7.16259e-02        0.00000e+00 
 52.50        3.92771e+00        7.61723e-02        0.00000e+00 
 53.20        3.92471e+00        8.08040e-02        0.00000e+00 
 53.90        3.92169e+00        8.55203e-02        0.00000e+00 
 54.60        3.91864e+00        9.03208e-02        0.00000e+00 
 55.30        3.91556e+00        9.52047e-02        0.00000e+00 
 56.00        3.91245e+00        1.00171e-01        0.00000e+00 
 56.70        3.90931e+00        1.05220e-01        0.00000e+00 
 57.40        3.90615e+00        1.10351e-01        0.00000e+00 
 58.10        3.90295e+00        1.15562e-01        0.00000e+00 
 58.80        3.89972e+00        1.20854e-01        0.00000e+00 
 59.50        3.89647e+00        1.26225e-01        0.00000e+00 
 60.20        3.89318e+00        1.31674e-01        0.00000e+00 
 60.90        3.88985e+00        1.37202e-01        0.00000e+00 
 61.60        3.88650e+00        1.42808e-01        0.00000e+00 
 62.30        3.88311e+00        1.48490e-01        0.00000e+00 
 63.00        3.87969e+00        1.54248e-01        0.00000e+00 
 63.70        3.87623e+00        1.60081e-01        0.00000e+00 
 64.40        3.87274e+00        1.65988e-01        0.00000e+00 
 65.10        3.86921e+00        1.71970e-01        0.00000e+00 
 65.80        3.86564e+00        1.78024e-01        0.00000e+00 
 66.50        3.86204e+00        1.84151e-01        0.00000e+00 
 67.20        3.85841e+00        1.90349e-01        0.00000e+00 
 67.90        3.85473e+00        1.96617e-01        0.00000e+00 
 68.60        3.85102e+00        2.02956e-01        0.00000e+00 
 69.30        3.84727e+00        2.09363e-01        0.00000e+00 
 70.00        3.84348e+00        2.15839e-01        0.00000e+00 
 70.70        3.83965e+00        2.22382e-01        0.00000e+00 
 71.40        3.83578e+00        2.28992e-01        0.00000e+00 
 72.10        3.83187e+00        2.35667e-01        0.00000e+00 
 72.80        3.82792e+00        2.42407e-01        0.00000e+00 
 73.50        3.82392e+00        2.49211e-01        0.00000e+00 
 74.20        3.81989e+00        2.56078e-01        0.00000e+00 
 74.90        3.81582e+00        2.63008e-01        0.00000e+00 
 75.60        3.81170e+00        2.69999e-01        0.00000e+00 
 76.30        3.80754e+00        2.77050e-01        0.00000e+00 
 77.00        3.80333e+00        2.84161e-01        0.00000e+00 
 77.70        3.79908e+00        2.91331e-01        0.00000e+00 
 78.40        3.79479e+00        2.98558e-01        0.00000e+00 
 79.10        3.79046e+00        3.05842e-01        0.00000e+00 
 79.80        3.78608e+00        3.13183e-01        0.00000e+00 
 80.50        3.78165e+00        3.20578e-01        0.00000e+00 
 81.20        3.77718e+00        3.28027e-01        0.00000e+00 
 81.90        3.77266e+00        3.35530e-01        0.00000e+00 
 82.60        3.76810e+00        3.43085e-01        0.00000e+00 
 83.30        3.76349e+00        3.50691e-01        0.00000e+00 
 84.00        3.75883e+00        3.58347e-01        0.00000e+00 
 84.70        3.75413e+00        3.66053e-01        0.00000e+00 
 85.40        3.74938e+00        3.73807e-01        0.00000e+00 
 86.10        3.74458e+00        3.81608e-01        0.00000e+00 
 86.80        3.73973e+00        3.89456e-01        0.00000e+00 
 87.50        3.73484e+00        3.97350e-01        0.00000e+00 
 88.20        3.72989e+00        4.05288e-01        0.00000e+00 
 88.90        3.72490e+00        4.13269e-01        0.00000e+00 
 89.60        3.71986e+00        4.21293e-01        0.00000e+00 
 90.30        3.71477e+00        4.29358e-01        0.00000e+00 
 91.00        3.70963e+00        4.37464e-01        0.00000e+00 
 91.70        3.70445e+00        4.45610e-01        0.00000e+00 
 92.40        3.69921e+00        4.53794e-01        0.00000e+00 
 93.10        3.69392e+00        4.62015e-01        0.00000e+00 
 93.80        3.68858e+00        4.70273e-01        0.00000e+00 
 94.50        3.68320e+00        4.78567e-01        0.00000e+00 
 95.20        3.67776e+00        4.86895e-01        0.00000e+00 
 95.90        3.67227e+00        4.95257e-01        0.00000e+00 
 96.60        3.66673e+00        5.03651e-01        0.00000e+00 
 97.30        3.66114e+00        5.12077e-01        0.00000e+00 
 98.00        3.65550e+00        5.20533e-01        0.00000e+00 
 98.70        3.64981e+00        5.29018e-01        0.00000e+00 
 99.40        3.64407e+00        5.37532e-01        0.00000e+00 
 100.10        3.63828e+00        5.46074e-01        0.00000e+00 
 100.80        3.63244e+00        5.54642e-01        0.00000e+00 
 101.50        3.62654e+00        5.63235e-01        0.00000e+00 
 102.20        3.62060e+00        5.71853e-01        0.00000e+00 
 102.90        3.61460e+00        5.80495e-01        0.00000e+00 
 103.60        3.60856e+00        5.89158e-01        0.00000e+00 
 104.30        3.60246e+00        5.97843e-01        0.00000e+00 
 105.00        3.59631e+00        6.06549e-01        0.00000e+00 
 105.70        3.59011e+00        6.15274e-01        0.00000e+00 
 106.40        3.58386e+00        6.24018e-01        0.00000e+00 
 107.10        3.57755e+00        6.32778e-01        0.00000e+00 
 107.80        3.57120e+00        6.41556e-01        0.00000e+00 
 108.50        3.56480e+00        6.50349e-01        0.00000e+00 
 109.20        3.55834e+00        6.59156e-01        0.00000e+00 
 109.90        3.55184e+00        6.67977e-01        0.00000e+00 
 110.60        3.54528e+00        6.76810e-01        0.00000e+00 
 111.30        3.53868e+00        6.85655e-01        0.00000e+00 
 112.00        3.53202e+00        6.94510e-01        0.00000e+00 
 112.70        3.52531e+00        7.03376e-01        0.00000e+00 
 113.40        3.51856e+00        7.12249e-01        0.00000e+00 
 114.10        3.51175e+00        7.21131e-01        0.00000e+00 
 114.80        3.50489e+00        7.30019e-01        0.00000e+00 
 115.50        3.49799e+00        7.38913e-01        0.00000e+00 
 116.20        3.49103e+00        7.47812e-01        0.00000e+00 
 116.90        3.48403e+00        7.56715e-01        0.00000e+00 
 117.60        3.47697e+00        7.65621e-01        0.00000e+00 
 118.30        3.46987e+00        7.74529e-01        0.00000e+00 
 119.00        3.46272e+00        7.83438e-01        0.00000e+00 
 119.70        3.45552e+00        7.92348e-01        0.00000e+00 
 120.40        3.44827e+00        8.01257e-01        0.00000e+00 
 121.10        3.44098e+00        8.10164e-01        0.00000e+00 
 121.80        3.43363e+00        8.19069e-01        0.00000e+00 
 122.50        3.42624e+00        8.27971e-01        0.00000e+00 
 123.20        3.41880e+00        8.36869e-01        0.00000e+00 
 123.90        3.41132e+00        8.45761e-01        0.00000e+00 
 124.60        3.40379e+00        8.54648e-01        0.00000e+00 
 125.30        3.39621e+00        8.63528e-01        0.00000e+00 
 126.00        3.38858e+00        8.72400e-01        0.00000e+00 
 126.70        3.38091e+00        8.81265e-01        0.00000e+00 
 127.40        3.37320e+00        8.90119e-01        0.00000e+00 
 128.10        3.36544e+00        8.98964e-01        0.00000e+00 
 128.80        3.35763e+00        9.07798e-01        0.00000e+00 
 129.50        3.34978e+00        9.16620e-01        0.00000e+00 
 130.20        3.34189e+00        9.25430e-01        0.00000e+00 
 130.90        3.33395e+00        9.34227e-01        0.00000e+00 
 131.60        3.32597e+00        9.43009e-01        0.00000e+00 
 132.30        3.31795e+00        9.51777e-01        0.00000e+00 
 133.00        3.30988e+00        9.60529e-01        0.00000e+00 
 133.70        3.30177e+00        9.69265e-01        0.00000e+00 
 134.40        3.29362e+00        9.77984e-01        0.00000e+00 
 135.10        3.28543e+00        9.86685e-01        0.00000e+00 
 135.80        3.27719e+00        9.95368e-01        0.00000e+00 
 136.50        3.26892e+00        1.00403e+00        0.00000e+00 
 137.20        3.26060e+00        1.01267e+00        0.00000e+00 
 137.90        3.25225e+00        1.02130e+00        0.00000e+00 
 138.60        3.24385e+00        1.02990e+00        0.00000e+00 
 139.30        3.23542e+00        1.03848e+00        0.00000e+00 
 140.00        3.22695e+00        1.04704e+00        0.00000e+00 
 140.70        3.21844e+00        1.05557e+00        0.00000e+00 
 141.40        3.20989e+00        1.06408e+00        0.00000e+00 
 142.10        3.20130e+00        1.07256e+00        0.00000e+00 
 142.80        3.19268e+00        1.08102e+00        0.00000e+00 
 143.50        3.18402e+00        1.08946e+00        0.00000e+00 
 144.20        3.17532e+00        1.09787e+00        0.00000e+00 
 144.90        3.16659e+00        1.10625e+00        0.00000e+00 
 145.60        3.15782e+00        1.11460e+00        0.00000e+00 
 146.30        3.14902e+00        1.12293e+00        0.00000e+00 
 147.00        3.14019e+00        1.13122e+00        0.00000e+00 
 147.70        3.13132e+00        1.13949e+00        0.00000e+00 
 148.40        3.12241e+00        1.14773e+00        0.00000e+00 
 149.10        3.11348e+00        1.15593e+00        0.00000e+00 
 149.80        3.10451e+00        1.16411e+00        0.00000e+00 
 150.50        3.09551e+00        1.17225e+00        0.00000e+00 
 151.20        3.08647e+00        1.18036e+00        0.00000e+00 
 151.90        3.07741e+00        1.18844e+00        0.00000e+00 
 152.60        3.06832e+00        1.19649e+00        0.00000e+00 
 153.30        3.05919e+00        1.20450e+00        0.00000e+00 
 154.00        3.05004e+00        1.21248e+00        0.00000e+00 
 154.70        3.04085e+00        1.22043e+00        0.00000e+00 
 155.40        3.03164e+00        1.22834e+00        0.00000e+00 
 156.10        3.02240e+00        1.23621e+00        0.00000e+00 
 156.80        3.01314e+00        1.24405e+00        0.00000e+00 
 157.50        3.00384e+00        1.25186e+00        0.00000e+00 
 158.20        2.99452e+00        1.25962e+00        0.00000e+00 
 158.90        2.98517e+00        1.26735e+00        0.00000e+00 
 159.60        2.97580e+00        1.27505e+00        0.00000e+00 
 160.30        2.96640e+00        1.28270e+00        0.00000e+00 
 161.00        2.95698e+00        1.29032e+00        0.00000e+00 
 161.70        2.94753e+00        1.29790e+00        0.00000e+00 
 162.40        2.93806e+00        1.30544e+00        0.00000e+00 
 163.10        2.92856e+00        1.31294e+00        0.00000e+00 
 163.80        2.91904e+00        1.32040e+00        0.00000e+00 
 164.50        2.90950e+00        1.32782e+00        0.00000e+00 
 165.20        2.89994e+00        1.33520e+00        0.00000e+00 
 165.90        2.89036e+00        1.34254e+00        0.00000e+00 
 166.60        2.88076e+00        1.34984e+00        0.00000e+00 
 167.30        2.87113e+00        1.35710e+00        0.00000e+00 
 168.00        2.86149e+00        1.36432e+00        0.00000e+00 
 168.70        2.85182e+00        1.37149e+00        0.00000e+00 
 169.40        2.84214e+00        1.37863e+00        0.00000e+00 
 170.10        2.83244e+00        1.38572e+00        0.00000e+00 
 170.80        2.82272e+00        1.39277e+00        0.00000e+00 
 171.50        2.81299e+00        1.39978e+00        0.00000e+00 
 172.20        2.80323e+00        1.40674e+00        0.00000e+00 
 172.90        2.79346e+00        1.41366e+00        0.00000e+00 
 173.60        2.78368e+00        1.42054e+00        0.00000e+00 
 174.30        2.77388e+00        1.42738e+00        0.00000e+00 
 175.00        2.76406e+00        1.43417e+00        0.00000e+00 
 175.70        2.75423e+00        1.44091e+00        0.00000e+00 
 176.40        2.74438e+00        1.44762e+00        0.00000e+00 
 177.10        2.73453e+00        1.45428e+00        0.00000e+00 
 177.80        2.72465e+00        1.46089e+00        0.00000e+00 
 178.50        2.71477e+00        1.46746e+00        0.00000e+00 
 179.20        2.70487e+00        1.47399e+00        0.00000e+00 
 179.90        2.69496e+00        1.48047e+00        0.00000e+00 
 180.60        2.68504e+00        1.48690e+00        0.00000e+00 
 181.30        2.67511e+00        1.49329e+00        0.00000e+00 
 182.00        2.66517e+00        1.49964e+00        0.00000e+00 
 182.70        2.65522e+00        1.50594e+00        0.00000e+00 
 183.40        2.64526e+00        1.51219e+00        0.00000e+00 
 184.10        2.63529e+00        1.51840e+00        0.00000e+00 
 184.80        2.62531e+00        1.52456e+00        0.00000e+00 
 185.50        2.61533e+00        1.53068e+00        0.00000e+00 
 186.20        2.60533e+00        1.53675e+00        0.00000e+00 
 186.90        2.59533e+00        1.54278e+00        0.00000e+00 
 187.60        2.58532e+00        1.54876e+00        0.00000e+00 
 188.30        2.57531e+00        1.55469e+00        0.00000e+00 
 189.00        2.56529e+00        1.56058e+00        0.00000e+00 
 189.70        2.55526e+00        1.56643e+00        0.00000e+00 
 190.40        2.54523e+00        1.57222e+00        0.00000e+00 
 191.10        2.53519e+00        1.57797e+00        0.00000e+00 
 191.80        2.52515e+00        1.58367e+00        0.00000e+00 
 192.50        2.51511e+00        1.58933e+00        0.00000e+00 
 193.20        2.50506e+00        1.59494e+00        0.00000e+00 
 193.90        2.49501e+00        1.60051e+00        0.00000e+00 
 194.60        2.48496e+00        1.60603e+00        0.00000e+00 
 195.30        2.47490e+00        1.61150e+00        0.00000e+00 
 196.00        2.46484e+00        1.61693e+00        0.00000e+00 
 196.70        2.45478e+00        1.62231e+00        0.00000e+00 
 197.40        2.44472e+00        1.62764e+00        0.00000e+00 
 198.10        2.43466e+00        1.63293e+00        0.00000e+00 
 198.80        2.42460e+00        1.63817e+00        0.00000e+00 
 199.50        2.41454e+00        1.64336e+00        0.00000e+00 
 200.20        2.40447e+00        1.64851e+00        0.00000e+00 
 200.90        2.39441e+00        1.65362e+00        0.00000e+00 
 201.60        2.38435e+00        1.65867e+00        0.00000e+00 
 202.30        2.37430e+00        1.66368e+00        0.00000e+00 
 203.00        2.36424e+00        1.66865e+00        0.00000e+00 
 203.70        2.35418e+00        1.67357e+00        0.00000e+00 
 204.40        2.34413e+00        1.67844e+00        0.00000e+00 
 205.10        2.33408e+00        1.68327e+00        0.00000e+00 
 205.80        2.32404e+00        1.68805e+00        0.00000e+00 
 206.50        2.31400e+00        1.69279e+00        0.00000e+00 
 207.20        2.30396e+00        1.69748e+00        0.00000e+00 
 207.90        2.29392e+00        1.70213e+00        0.00000e+00 
 208.60        2.28390e+00        1.70673e+00        0.00000e+00 
 209.30        2.27387e+00        1.71128e+00        0.00000e+00 
 210.00        2.26385e+00        1.71579e+00        0.00000e+00 
 210.70        2.25384e+00        1.72026e+00        0.00000e+00 
 211.40        2.24383e+00        1.72468e+00        0.00000e+00 
