#Navio B MarAd
#Manobra de Curva                     de Zig-Zag
#
#velocidade no Sistema Solidário 
#
#temp           u           v           w dot                     roll   dot pitch     dot yaw 
 0.00        8.23000e+00        0.00000e+00        0.00000e+00        0.00000e+00        0.00000e+00        0.00000e+00 
 0.70        8.23000e+00        4.12179e-04        0.00000e+00        0.00000e+00        0.00000e+00        -9.01286e-06 
 1.40        8.23000e+00        8.42206e-04        0.00000e+00        0.00000e+00        0.00000e+00        -1.78848e-05 
 2.10        8.22727e+00        -6.45466e-03        0.00000e+00        0.00000e+00        0.00000e+00        1.41333e-04 
 2.80        8.22455e+00        -1.40633e-02        0.00000e+00        0.00000e+00        0.00000e+00        2.98000e-04 
 3.50        8.22182e+00        -2.19742e-02        0.00000e+00        0.00000e+00        0.00000e+00        4.52217e-04 
 4.20        8.21910e+00        -3.01779e-02        0.00000e+00        0.00000e+00        0.00000e+00        6.04077e-04 
 4.90        8.21637e+00        -3.86656e-02        0.00000e+00        0.00000e+00        0.00000e+00        7.53671e-04 
 5.60        8.21364e+00        -4.74282e-02        0.00000e+00        0.00000e+00        0.00000e+00        9.01085e-04 
 6.30        8.21090e+00        -5.64573e-02        0.00000e+00        0.00000e+00        0.00000e+00        1.04640e-03 
 7.00        8.20814e+00        -6.57442e-02        0.00000e+00        0.00000e+00        0.00000e+00        1.18969e-03 
 7.70        8.20538e+00        -7.52809e-02        0.00000e+00        0.00000e+00        0.00000e+00        1.33104e-03 
 8.40        8.20259e+00        -8.50593e-02        0.00000e+00        0.00000e+00        0.00000e+00        1.47051e-03 
 9.10        8.19978e+00        -9.50713e-02        0.00000e+00        0.00000e+00        0.00000e+00        1.60817e-03 
 9.80        8.19695e+00        -1.05309e-01        0.00000e+00        0.00000e+00        0.00000e+00        1.74408e-03 
 10.50        8.19409e+00        -1.15766e-01        0.00000e+00        0.00000e+00        0.00000e+00        1.87829e-03 
 11.20        8.19120e+00        -1.26434e-01        0.00000e+00        0.00000e+00        0.00000e+00        2.01088e-03 
 11.90        8.18827e+00        -1.37305e-01        0.00000e+00        0.00000e+00        0.00000e+00        2.14188e-03 
 12.60        8.18531e+00        -1.48373e-01        0.00000e+00        0.00000e+00        0.00000e+00        2.27136e-03 
 13.30        8.18231e+00        -1.59631e-01        0.00000e+00        0.00000e+00        0.00000e+00        2.39935e-03 
 14.00        8.17926e+00        -1.71071e-01        0.00000e+00        0.00000e+00        0.00000e+00        2.52590e-03 
 14.70        8.17617e+00        -1.82687e-01        0.00000e+00        0.00000e+00        0.00000e+00        2.65105e-03 
 15.40        8.17303e+00        -1.94472e-01        0.00000e+00        0.00000e+00        0.00000e+00        2.77484e-03 
 16.10        8.16983e+00        -2.06420e-01        0.00000e+00        0.00000e+00        0.00000e+00        2.89732e-03 
 16.80        8.16658e+00        -2.18524e-01        0.00000e+00        0.00000e+00        0.00000e+00        3.01850e-03 
 17.50        8.16327e+00        -2.30777e-01        0.00000e+00        0.00000e+00        0.00000e+00        3.13843e-03 
 18.20        8.15989e+00        -2.43174e-01        0.00000e+00        0.00000e+00        0.00000e+00        3.25713e-03 
 18.90        8.15645e+00        -2.55709e-01        0.00000e+00        0.00000e+00        0.00000e+00        3.37463e-03 
 19.60        8.15293e+00        -2.68374e-01        0.00000e+00        0.00000e+00        0.00000e+00        3.49097e-03 
 20.30        8.14935e+00        -2.81164e-01        0.00000e+00        0.00000e+00        0.00000e+00        3.60615e-03 
 21.00        8.14569e+00        -2.94073e-01        0.00000e+00        0.00000e+00        0.00000e+00        3.72021e-03 
 21.70        8.14195e+00        -3.07095e-01        0.00000e+00        0.00000e+00        0.00000e+00        3.83316e-03 
 22.40        8.13813e+00        -3.20225e-01        0.00000e+00        0.00000e+00        0.00000e+00        3.94502e-03 
 23.10        8.13422e+00        -3.33456e-01        0.00000e+00        0.00000e+00        0.00000e+00        4.05582e-03 
 23.80        8.13023e+00        -3.46783e-01        0.00000e+00        0.00000e+00        0.00000e+00        4.16556e-03 
 24.50        8.12614e+00        -3.60199e-01        0.00000e+00        0.00000e+00        0.00000e+00        4.27425e-03 
 25.20        8.12196e+00        -3.73701e-01        0.00000e+00        0.00000e+00        0.00000e+00        4.38192e-03 
 25.90        8.11769e+00        -3.87281e-01        0.00000e+00        0.00000e+00        0.00000e+00        4.48858e-03 
 26.60        8.11331e+00        -4.00935e-01        0.00000e+00        0.00000e+00        0.00000e+00        4.59423e-03 
 27.30        8.10883e+00        -4.14657e-01        0.00000e+00        0.00000e+00        0.00000e+00        4.69888e-03 
 28.00        8.10425e+00        -4.28442e-01        0.00000e+00        0.00000e+00        0.00000e+00        4.80254e-03 
 28.70        8.09955e+00        -4.42284e-01        0.00000e+00        0.00000e+00        0.00000e+00        4.90522e-03 
 29.40        8.09475e+00        -4.56179e-01        0.00000e+00        0.00000e+00        0.00000e+00        5.00692e-03 
 30.10        8.08984e+00        -4.70120e-01        0.00000e+00        0.00000e+00        0.00000e+00        5.10765e-03 
 30.80        8.08480e+00        -4.84104e-01        0.00000e+00        0.00000e+00        0.00000e+00        5.20741e-03 
 31.50        8.07965e+00        -4.98125e-01        0.00000e+00        0.00000e+00        0.00000e+00        5.30620e-03 
 32.20        8.07438e+00        -5.12177e-01        0.00000e+00        0.00000e+00        0.00000e+00        5.40404e-03 
 32.90        8.06899e+00        -5.26257e-01        0.00000e+00        0.00000e+00        0.00000e+00        5.50091e-03 
 33.60        8.06347e+00        -5.40359e-01        0.00000e+00        0.00000e+00        0.00000e+00        5.59682e-03 
 34.30        8.05783e+00        -5.54477e-01        0.00000e+00        0.00000e+00        0.00000e+00        5.69177e-03 
 35.00        8.05205e+00        -5.68609e-01        0.00000e+00        0.00000e+00        0.00000e+00        5.78577e-03 
 35.70        8.04614e+00        -5.82748e-01        0.00000e+00        0.00000e+00        0.00000e+00        5.87880e-03 
 36.40        8.04010e+00        -5.96890e-01        0.00000e+00        0.00000e+00        0.00000e+00        5.97087e-03 
 37.10        8.03393e+00        -6.11031e-01        0.00000e+00        0.00000e+00        0.00000e+00        6.06197e-03 
 37.80        8.02761e+00        -6.25166e-01        0.00000e+00        0.00000e+00        0.00000e+00        6.15211e-03 
 38.50        8.02116e+00        -6.39290e-01        0.00000e+00        0.00000e+00        0.00000e+00        6.24128e-03 
 39.20        8.01457e+00        -6.53400e-01        0.00000e+00        0.00000e+00        0.00000e+00        6.32948e-03 
 39.90        8.00783e+00        -6.67490e-01        0.00000e+00        0.00000e+00        0.00000e+00        6.41671e-03 
 40.60        8.00095e+00        -6.81556e-01        0.00000e+00        0.00000e+00        0.00000e+00        6.50296e-03 
 41.30        7.99393e+00        -6.95595e-01        0.00000e+00        0.00000e+00        0.00000e+00        6.58822e-03 
 42.00        7.98676e+00        -7.09602e-01        0.00000e+00        0.00000e+00        0.00000e+00        6.67251e-03 
 42.70        7.97944e+00        -7.23573e-01        0.00000e+00        0.00000e+00        0.00000e+00        6.75580e-03 
 43.40        7.97197e+00        -7.37504e-01        0.00000e+00        0.00000e+00        0.00000e+00        6.83810e-03 
 44.10        7.96435e+00        -7.51391e-01        0.00000e+00        0.00000e+00        0.00000e+00        6.91940e-03 
 44.80        7.95659e+00        -7.65231e-01        0.00000e+00        0.00000e+00        0.00000e+00        6.99970e-03 
 45.50        7.94867e+00        -7.79018e-01        0.00000e+00        0.00000e+00        0.00000e+00        7.07899e-03 
 46.20        7.94059e+00        -7.92750e-01        0.00000e+00        0.00000e+00        0.00000e+00        7.15728e-03 
 46.90        7.93237e+00        -8.06423e-01        0.00000e+00        0.00000e+00        0.00000e+00        7.23455e-03 
 47.60        7.92399e+00        -8.20034e-01        0.00000e+00        0.00000e+00        0.00000e+00        7.31080e-03 
 48.30        7.91546e+00        -8.33578e-01        0.00000e+00        0.00000e+00        0.00000e+00        7.38603e-03 
 49.00        7.90677e+00        -8.47053e-01        0.00000e+00        0.00000e+00        0.00000e+00        7.46023e-03 
 49.70        7.89792e+00        -8.60455e-01        0.00000e+00        0.00000e+00        0.00000e+00        7.53341e-03 
 50.40        7.88893e+00        -8.73780e-01        0.00000e+00        0.00000e+00        0.00000e+00        7.60555e-03 
 51.10        7.87977e+00        -8.87027e-01        0.00000e+00        0.00000e+00        0.00000e+00        7.67665e-03 
 51.80        7.87046e+00        -9.00190e-01        0.00000e+00        0.00000e+00        0.00000e+00        7.74671e-03 
 52.50        7.86100e+00        -9.13268e-01        0.00000e+00        0.00000e+00        0.00000e+00        7.81573e-03 
 53.20        7.85138e+00        -9.26258e-01        0.00000e+00        0.00000e+00        0.00000e+00        7.88370e-03 
 53.90        7.84160e+00        -9.39156e-01        0.00000e+00        0.00000e+00        0.00000e+00        7.95062e-03 
 54.60        7.83167e+00        -9.51960e-01        0.00000e+00        0.00000e+00        0.00000e+00        8.01649e-03 
 55.30        7.82159e+00        -9.64666e-01        0.00000e+00        0.00000e+00        0.00000e+00        8.08130e-03 
 56.00        7.81135e+00        -9.77274e-01        0.00000e+00        0.00000e+00        0.00000e+00        8.14506e-03 
 56.70        7.80096e+00        -9.89779e-01        0.00000e+00        0.00000e+00        0.00000e+00        8.20776e-03 
 57.40        7.79041e+00        -1.00218e+00        0.00000e+00        0.00000e+00        0.00000e+00        8.26940e-03 
 58.10        7.77972e+00        -1.01447e+00        0.00000e+00        0.00000e+00        0.00000e+00        8.32998e-03 
 58.80        7.76887e+00        -1.02666e+00        0.00000e+00        0.00000e+00        0.00000e+00        8.38950e-03 
 59.50        7.75787e+00        -1.03873e+00        0.00000e+00        0.00000e+00        0.00000e+00        8.44795e-03 
 60.20        7.74672e+00        -1.05069e+00        0.00000e+00        0.00000e+00        0.00000e+00        8.50534e-03 
 60.90        7.73543e+00        -1.06253e+00        0.00000e+00        0.00000e+00        0.00000e+00        8.56167e-03 
 61.60        7.72399e+00        -1.07426e+00        0.00000e+00        0.00000e+00        0.00000e+00        8.61694e-03 
 62.30        7.71240e+00        -1.08586e+00        0.00000e+00        0.00000e+00        0.00000e+00        8.67115e-03 
 63.00        7.70067e+00        -1.09735e+00        0.00000e+00        0.00000e+00        0.00000e+00        8.72429e-03 
 63.70        7.68879e+00        -1.10871e+00        0.00000e+00        0.00000e+00        0.00000e+00        8.77638e-03 
 64.40        7.67677e+00        -1.11995e+00        0.00000e+00        0.00000e+00        0.00000e+00        8.82741e-03 
 65.10        7.66462e+00        -1.13106e+00        0.00000e+00        0.00000e+00        0.00000e+00        8.87738e-03 
 65.80        7.65232e+00        -1.14204e+00        0.00000e+00        0.00000e+00        0.00000e+00        8.92630e-03 
 66.50        7.63989e+00        -1.15289e+00        0.00000e+00        0.00000e+00        0.00000e+00        8.97417e-03 
 67.20        7.62732e+00        -1.16362e+00        0.00000e+00        0.00000e+00        0.00000e+00        9.02099e-03 
 67.90        7.61461e+00        -1.17421e+00        0.00000e+00        0.00000e+00        0.00000e+00        9.06677e-03 
 68.60        7.60178e+00        -1.18467e+00        0.00000e+00        0.00000e+00        0.00000e+00        9.11151e-03 
 69.30        7.58881e+00        -1.18073e+00        0.00000e+00        0.00000e+00        0.00000e+00        8.84580e-03 
 70.00        7.57626e+00        -1.17648e+00        0.00000e+00        0.00000e+00        0.00000e+00        8.58829e-03 
 70.70        7.56411e+00        -1.17195e+00        0.00000e+00        0.00000e+00        0.00000e+00        8.33864e-03 
 71.40        7.55235e+00        -1.16713e+00        0.00000e+00        0.00000e+00        0.00000e+00        8.09654e-03 
 72.10        7.54097e+00        -1.16206e+00        0.00000e+00        0.00000e+00        0.00000e+00        7.86169e-03 
 72.80        7.52996e+00        -1.15673e+00        0.00000e+00        0.00000e+00        0.00000e+00        7.63379e-03 
 73.50        7.51931e+00        -1.15116e+00        0.00000e+00        0.00000e+00        0.00000e+00        7.41258e-03 
 74.20        7.50900e+00        -1.14536e+00        0.00000e+00        0.00000e+00        0.00000e+00        7.19779e-03 
 74.90        7.49904e+00        -1.13935e+00        0.00000e+00        0.00000e+00        0.00000e+00        6.98916e-03 
 75.60        7.48940e+00        -1.13313e+00        0.00000e+00        0.00000e+00        0.00000e+00        6.78646e-03 
 76.30        7.48008e+00        -1.12671e+00        0.00000e+00        0.00000e+00        0.00000e+00        6.58944e-03 
 77.00        7.47107e+00        -1.12010e+00        0.00000e+00        0.00000e+00        0.00000e+00        6.39790e-03 
 77.70        7.46236e+00        -1.11332e+00        0.00000e+00        0.00000e+00        0.00000e+00        6.21161e-03 
 78.40        7.45394e+00        -1.10636e+00        0.00000e+00        0.00000e+00        0.00000e+00        6.03038e-03 
 79.10        7.44581e+00        -1.09924e+00        0.00000e+00        0.00000e+00        0.00000e+00        5.85399e-03 
 79.80        7.43795e+00        -1.09196e+00        0.00000e+00        0.00000e+00        0.00000e+00        5.68227e-03 
 80.50        7.43035e+00        -1.08453e+00        0.00000e+00        0.00000e+00        0.00000e+00        5.51503e-03 
 81.20        7.42302e+00        -1.07696e+00        0.00000e+00        0.00000e+00        0.00000e+00        5.35210e-03 
 81.90        7.41594e+00        -1.06926e+00        0.00000e+00        0.00000e+00        0.00000e+00        5.19331e-03 
 82.60        7.40910e+00        -1.06143e+00        0.00000e+00        0.00000e+00        0.00000e+00        5.03851e-03 
 83.30        7.40249e+00        -1.05347e+00        0.00000e+00        0.00000e+00        0.00000e+00        4.88753e-03 
 84.00        7.39612e+00        -1.04540e+00        0.00000e+00        0.00000e+00        0.00000e+00        4.74023e-03 
 84.70        7.38997e+00        -1.03721e+00        0.00000e+00        0.00000e+00        0.00000e+00        4.59646e-03 
 85.40        7.38403e+00        -1.02892e+00        0.00000e+00        0.00000e+00        0.00000e+00        4.45610e-03 
 86.10        7.37830e+00        -1.02052e+00        0.00000e+00        0.00000e+00        0.00000e+00        4.31900e-03 
 86.80        7.37278e+00        -1.01203e+00        0.00000e+00        0.00000e+00        0.00000e+00        4.18505e-03 
 87.50        7.36745e+00        -1.00344e+00        0.00000e+00        0.00000e+00        0.00000e+00        4.05411e-03 
 88.20        7.36232e+00        -9.94759e-01        0.00000e+00        0.00000e+00        0.00000e+00        3.92608e-03 
 88.90        7.35737e+00        -9.85995e-01        0.00000e+00        0.00000e+00        0.00000e+00        3.80084e-03 
 89.60        7.35259e+00        -9.77149e-01        0.00000e+00        0.00000e+00        0.00000e+00        3.67828e-03 
 90.30        7.34800e+00        -9.68224e-01        0.00000e+00        0.00000e+00        0.00000e+00        3.55829e-03 
 91.00        7.34357e+00        -9.59224e-01        0.00000e+00        0.00000e+00        0.00000e+00        3.44078e-03 
 91.70        7.33931e+00        -9.50151e-01        0.00000e+00        0.00000e+00        0.00000e+00        3.32566e-03 
 92.40        7.33520e+00        -9.41009e-01        0.00000e+00        0.00000e+00        0.00000e+00        3.21281e-03 
 93.10        7.33125e+00        -9.31800e-01        0.00000e+00        0.00000e+00        0.00000e+00        3.10217e-03 
 93.80        7.32745e+00        -9.22528e-01        0.00000e+00        0.00000e+00        0.00000e+00        2.99363e-03 
 94.50        7.32380e+00        -9.13193e-01        0.00000e+00        0.00000e+00        0.00000e+00        2.88712e-03 
 95.20        7.32028e+00        -9.03800e-01        0.00000e+00        0.00000e+00        0.00000e+00        2.78255e-03 
 95.90        7.31690e+00        -8.94349e-01        0.00000e+00        0.00000e+00        0.00000e+00        2.67986e-03 
 96.60        7.31366e+00        -8.84844e-01        0.00000e+00        0.00000e+00        0.00000e+00        2.57895e-03 
 97.30        7.31054e+00        -8.75285e-01        0.00000e+00        0.00000e+00        0.00000e+00        2.47976e-03 
 98.00        7.30755e+00        -8.65675e-01        0.00000e+00        0.00000e+00        0.00000e+00        2.38223e-03 
 98.70        7.30468e+00        -8.56016e-01        0.00000e+00        0.00000e+00        0.00000e+00        2.28628e-03 
 99.40        7.30192e+00        -8.46308e-01        0.00000e+00        0.00000e+00        0.00000e+00        2.19184e-03 
 100.10        7.29928e+00        -8.36554e-01        0.00000e+00        0.00000e+00        0.00000e+00        2.09886e-03 
 100.80        7.29675e+00        -8.26754e-01        0.00000e+00        0.00000e+00        0.00000e+00        2.00728e-03 
 101.50        7.29432e+00        -8.16911e-01        0.00000e+00        0.00000e+00        0.00000e+00        1.91703e-03 
 102.20        7.29200e+00        -8.07024e-01        0.00000e+00        0.00000e+00        0.00000e+00        1.82805e-03 
 102.90        7.28978e+00        -7.97096e-01        0.00000e+00        0.00000e+00        0.00000e+00        1.74031e-03 
 103.60        7.28766e+00        -7.87127e-01        0.00000e+00        0.00000e+00        0.00000e+00        1.65373e-03 
 104.30        7.28563e+00        -7.77118e-01        0.00000e+00        0.00000e+00        0.00000e+00        1.56827e-03 
 105.00        7.28369e+00        -7.67069e-01        0.00000e+00        0.00000e+00        0.00000e+00        1.48388e-03 
 105.70        7.28183e+00        -7.56983e-01        0.00000e+00        0.00000e+00        0.00000e+00        1.40051e-03 
 106.40        7.28007e+00        -7.46858e-01        0.00000e+00        0.00000e+00        0.00000e+00        1.31812e-03 
 107.10        7.27838e+00        -7.36696e-01        0.00000e+00        0.00000e+00        0.00000e+00        1.23665e-03 
 107.80        7.27678e+00        -7.26498e-01        0.00000e+00        0.00000e+00        0.00000e+00        1.15607e-03 
 108.50        7.27525e+00        -7.16263e-01        0.00000e+00        0.00000e+00        0.00000e+00        1.07633e-03 
 109.20        7.27380e+00        -7.05992e-01        0.00000e+00        0.00000e+00        0.00000e+00        9.97394e-04 
 109.90        7.27242e+00        -6.95685e-01        0.00000e+00        0.00000e+00        0.00000e+00        9.19218e-04 
 110.60        7.27111e+00        -6.85342e-01        0.00000e+00        0.00000e+00        0.00000e+00        8.41764e-04 
 111.30        7.26987e+00        -6.74964e-01        0.00000e+00        0.00000e+00        0.00000e+00        7.64995e-04 
