#Navio B MarAd
#Manobra de                         Curva de Zig-Zag
#
#velocidade Inercial
#
#temp           u           v           r
 0.00        8.23000e+00        0.00000e+00        0.00000e+00 
 0.70        8.23000e+00        4.12179e-04        0.00000e+00 
 1.40        8.23000e+00        7.90283e-04        0.00000e+00 
 2.10        8.22727e+00        -6.60957e-03        0.00000e+00 
 2.80        8.22455e+00        -1.34045e-02        0.00000e+00 
 3.50        8.22183e+00        -1.96005e-02        0.00000e+00 
 4.20        8.21912e+00        -2.52033e-02        0.00000e+00 
 4.90        8.21641e+00        -3.02182e-02        0.00000e+00 
 5.60        8.21370e+00        -3.46504e-02        0.00000e+00 
 6.30        8.21100e+00        -3.85045e-02        0.00000e+00 
 7.00        8.20830e+00        -4.17851e-02        0.00000e+00 
 7.70        8.20560e+00        -4.44963e-02        0.00000e+00 
 8.40        8.20290e+00        -4.66422e-02        0.00000e+00 
 9.10        8.20019e+00        -4.82264e-02        0.00000e+00 
 9.80        8.19748e+00        -4.92525e-02        0.00000e+00 
 10.50        8.19476e+00        -4.97239e-02        0.00000e+00 
 11.20        8.19202e+00        -4.96436e-02        0.00000e+00 
 11.90        8.18928e+00        -4.90146e-02        0.00000e+00 
 12.60        8.18652e+00        -4.78397e-02        0.00000e+00 
 13.30        8.18374e+00        -4.61216e-02        0.00000e+00 
 14.00        8.18093e+00        -4.38627e-02        0.00000e+00 
 14.70        8.17811e+00        -4.10656e-02        0.00000e+00 
 15.40        8.17525e+00        -3.77325e-02        0.00000e+00 
 16.10        8.17237e+00        -3.38655e-02        0.00000e+00 
 16.80        8.16945e+00        -2.94669e-02        0.00000e+00 
 17.50        8.16649e+00        -2.45386e-02        0.00000e+00 
 18.20        8.16349e+00        -1.90826e-02        0.00000e+00 
 18.90        8.16044e+00        -1.31009e-02        0.00000e+00 
 19.60        8.15735e+00        -6.59530e-03        0.00000e+00 
 20.30        8.15420e+00        4.32256e-04        0.00000e+00 
 21.00        8.15099e+00        7.97995e-03        0.00000e+00 
 21.70        8.14772e+00        1.60459e-02        0.00000e+00 
 22.40        8.14439e+00        2.46284e-02        0.00000e+00 
 23.10        8.14098e+00        3.37255e-02        0.00000e+00 
 23.80        8.13750e+00        4.33353e-02        0.00000e+00 
 24.50        8.13395e+00        5.34559e-02        0.00000e+00 
 25.20        8.13030e+00        6.40854e-02        0.00000e+00 
 25.90        8.12657e+00        7.52219e-02        0.00000e+00 
 26.60        8.12275e+00        8.68632e-02        0.00000e+00 
 27.30        8.11882e+00        9.90073e-02        0.00000e+00 
 28.00        8.11480e+00        1.11652e-01        0.00000e+00 
 28.70        8.11066e+00        1.24795e-01        0.00000e+00 
 29.40        8.10641e+00        1.38434e-01        0.00000e+00 
 30.10        8.10205e+00        1.52567e-01        0.00000e+00 
 30.80        8.09756e+00        1.67191e-01        0.00000e+00 
 31.50        8.09294e+00        1.82303e-01        0.00000e+00 
 32.20        8.08819e+00        1.97901e-01        0.00000e+00 
 32.90        8.08330e+00        2.13982e-01        0.00000e+00 
 33.60        8.07827e+00        2.30543e-01        0.00000e+00 
 34.30        8.07309e+00        2.47580e-01        0.00000e+00 
 35.00        8.06775e+00        2.65092e-01        0.00000e+00 
 35.70        8.06225e+00        2.83073e-01        0.00000e+00 
 36.40        8.05659e+00        3.01521e-01        0.00000e+00 
 37.10        8.05075e+00        3.20433e-01        0.00000e+00 
 37.80        8.04475e+00        3.39803e-01        0.00000e+00 
 38.50        8.03856e+00        3.59630e-01        0.00000e+00 
 39.20        8.03218e+00        3.79907e-01        0.00000e+00 
 39.90        8.02561e+00        4.00632e-01        0.00000e+00 
 40.60        8.01884e+00        4.21800e-01        0.00000e+00 
 41.30        8.01187e+00        4.43405e-01        0.00000e+00 
 42.00        8.00470e+00        4.65445e-01        0.00000e+00 
 42.70        7.99731e+00        4.87913e-01        0.00000e+00 
 43.40        7.98970e+00        5.10804e-01        0.00000e+00 
 44.10        7.98187e+00        5.34114e-01        0.00000e+00 
 44.80        7.97381e+00        5.57838e-01        0.00000e+00 
 45.50        7.96552e+00        5.81969e-01        0.00000e+00 
 46.20        7.95699e+00        6.06502e-01        0.00000e+00 
 46.90        7.94821e+00        6.31431e-01        0.00000e+00 
 47.60        7.93919e+00        6.56751e-01        0.00000e+00 
 48.30        7.92992e+00        6.82455e-01        0.00000e+00 
 49.00        7.92038e+00        7.08536e-01        0.00000e+00 
 49.70        7.91059e+00        7.34989e-01        0.00000e+00 
 50.40        7.90053e+00        7.61807e-01        0.00000e+00 
 51.10        7.89019e+00        7.88984e-01        0.00000e+00 
 51.80        7.87958e+00        8.16511e-01        0.00000e+00 
 52.50        7.86870e+00        8.44383e-01        0.00000e+00 
 53.20        7.85752e+00        8.72592e-01        0.00000e+00 
 53.90        7.84606e+00        9.01130e-01        0.00000e+00 
 54.60        7.83431e+00        9.29992e-01        0.00000e+00 
 55.30        7.82226e+00        9.59168e-01        0.00000e+00 
 56.00        7.80992e+00        9.88651e-01        0.00000e+00 
 56.70        7.79727e+00        1.01843e+00        0.00000e+00 
 57.40        7.78431e+00        1.04851e+00        0.00000e+00 
 58.10        7.77105e+00        1.07887e+00        0.00000e+00 
 58.80        7.75747e+00        1.10950e+00        0.00000e+00 
 59.50        7.74358e+00        1.14040e+00        0.00000e+00 
 60.20        7.72937e+00        1.17156e+00        0.00000e+00 
 60.90        7.71484e+00        1.20297e+00        0.00000e+00 
 61.60        7.69998e+00        1.23462e+00        0.00000e+00 
 62.30        7.68480e+00        1.26651e+00        0.00000e+00 
 63.00        7.66929e+00        1.29862e+00        0.00000e+00 
 63.70        7.65345e+00        1.33095e+00        0.00000e+00 
 64.40        7.63728e+00        1.36348e+00        0.00000e+00 
 65.10        7.62078e+00        1.39621e+00        0.00000e+00 
 65.80        7.60393e+00        1.42914e+00        0.00000e+00 
 66.50        7.58676e+00        1.46224e+00        0.00000e+00 
 67.20        7.56924e+00        1.49552e+00        0.00000e+00 
 67.90        7.55138e+00        1.52895e+00        0.00000e+00 
 68.60        7.53319e+00        1.56255e+00        0.00000e+00 
 69.30        7.50955e+00        1.60961e+00        0.00000e+00 
 70.00        7.48621e+00        1.65548e+00        0.00000e+00 
 70.70        7.46315e+00        1.70019e+00        0.00000e+00 
 71.40        7.44039e+00        1.74378e+00        0.00000e+00 
 72.10        7.41793e+00        1.78630e+00        0.00000e+00 
 72.80        7.39578e+00        1.82778e+00        0.00000e+00 
 73.50        7.37392e+00        1.86825e+00        0.00000e+00 
 74.20        7.35238e+00        1.90776e+00        0.00000e+00 
 74.90        7.33113e+00        1.94631e+00        0.00000e+00 
 75.60        7.31019e+00        1.98396e+00        0.00000e+00 
 76.30        7.28956e+00        2.02073e+00        0.00000e+00 
 77.00        7.26923e+00        2.05664e+00        0.00000e+00 
 77.70        7.24920e+00        2.09173e+00        0.00000e+00 
 78.40        7.22948e+00        2.12601e+00        0.00000e+00 
 79.10        7.21005e+00        2.15951e+00        0.00000e+00 
 79.80        7.19093e+00        2.19226e+00        0.00000e+00 
 80.50        7.17210e+00        2.22427e+00        0.00000e+00 
 81.20        7.15356e+00        2.25557e+00        0.00000e+00 
 81.90        7.13532e+00        2.28618e+00        0.00000e+00 
 82.60        7.11737e+00        2.31611e+00        0.00000e+00 
 83.30        7.09970e+00        2.34540e+00        0.00000e+00 
 84.00        7.08233e+00        2.37404e+00        0.00000e+00 
 84.70        7.06523e+00        2.40207e+00        0.00000e+00 
 85.40        7.04841e+00        2.42949e+00        0.00000e+00 
 86.10        7.03188e+00        2.45632e+00        0.00000e+00 
 86.80        7.01561e+00        2.48259e+00        0.00000e+00 
 87.50        6.99962e+00        2.50829e+00        0.00000e+00 
 88.20        6.98390e+00        2.53345e+00        0.00000e+00 
 88.90        6.96845e+00        2.55808e+00        0.00000e+00 
 89.60        6.95326e+00        2.58219e+00        0.00000e+00 
 90.30        6.93833e+00        2.60579e+00        0.00000e+00 
 91.00        6.92366e+00        2.62890e+00        0.00000e+00 
 91.70        6.90924e+00        2.65153e+00        0.00000e+00 
 92.40        6.89508e+00        2.67368e+00        0.00000e+00 
 93.10        6.88117e+00        2.69537e+00        0.00000e+00 
 93.80        6.86751e+00        2.71661e+00        0.00000e+00 
 94.50        6.85409e+00        2.73740e+00        0.00000e+00 
 95.20        6.84092e+00        2.75776e+00        0.00000e+00 
 95.90        6.82798e+00        2.77769e+00        0.00000e+00 
 96.60        6.81529e+00        2.79721e+00        0.00000e+00 
 97.30        6.80283e+00        2.81632e+00        0.00000e+00 
 98.00        6.79060e+00        2.83502e+00        0.00000e+00 
 98.70        6.77861e+00        2.85333e+00        0.00000e+00 
 99.40        6.76684e+00        2.87126e+00        0.00000e+00 
 100.10        6.75530e+00        2.88880e+00        0.00000e+00 
 100.80        6.74399e+00        2.90597e+00        0.00000e+00 
 101.50        6.73290e+00        2.92277e+00        0.00000e+00 
 102.20        6.72202e+00        2.93922e+00        0.00000e+00 
 102.90        6.71137e+00        2.95530e+00        0.00000e+00 
 103.60        6.70093e+00        2.97104e+00        0.00000e+00 
 104.30        6.69070e+00        2.98643e+00        0.00000e+00 
 105.00        6.68069e+00        3.00148e+00        0.00000e+00 
 105.70        6.67088e+00        3.01620e+00        0.00000e+00 
 106.40        6.66129e+00        3.03058e+00        0.00000e+00 
 107.10        6.65190e+00        3.04464e+00        0.00000e+00 
 107.80        6.64271e+00        3.05838e+00        0.00000e+00 
 108.50        6.63373e+00        3.07180e+00        0.00000e+00 
 109.20        6.62495e+00        3.08491e+00        0.00000e+00 
 109.90        6.61636e+00        3.09771e+00        0.00000e+00 
 110.60        6.60798e+00        3.11021e+00        0.00000e+00 
 111.30        6.59979e+00        3.12240e+00        0.00000e+00 
 112.00        6.59179e+00        3.13429e+00        0.00000e+00 
 112.70        6.58399e+00        3.14588e+00        0.00000e+00 
 113.40        6.57638e+00        3.15718e+00        0.00000e+00 
 114.10        6.56896e+00        3.16820e+00        0.00000e+00 
 114.80        6.56172e+00        3.17892e+00        0.00000e+00 
 115.50        6.55468e+00        3.18936e+00        0.00000e+00 
 116.20        6.54781e+00        3.19952e+00        0.00000e+00 
 116.90        6.54114e+00        3.20939e+00        0.00000e+00 
 117.60        6.53464e+00        3.21899e+00        0.00000e+00 
 118.30        6.52833e+00        3.22831e+00        0.00000e+00 
 119.00        6.52219e+00        3.23736e+00        0.00000e+00 
 119.70        6.51623e+00        3.24615e+00        0.00000e+00 
 120.40        6.51043e+00        3.25470e+00        0.00000e+00 
 121.10        6.50479e+00        3.26299e+00        0.00000e+00 
 121.80        6.49931e+00        3.27104e+00        0.00000e+00 
 122.50        6.49400e+00        3.27884e+00        0.00000e+00 
 123.20        6.48885e+00        3.28639e+00        0.00000e+00 
 123.90        6.48386e+00        3.29370e+00        0.00000e+00 
 124.60        6.47904e+00        3.30075e+00        0.00000e+00 
 125.30        6.47437e+00        3.30756e+00        0.00000e+00 
 126.00        6.46987e+00        3.31412e+00        0.00000e+00 
 126.70        6.46552e+00        3.32043e+00        0.00000e+00 
 127.40        6.46134e+00        3.32649e+00        0.00000e+00 
 128.10        6.45731e+00        3.33231e+00        0.00000e+00 
 128.80        6.45345e+00        3.33787e+00        0.00000e+00 
 129.50        6.44974e+00        3.34318e+00        0.00000e+00 
 130.20        6.44619e+00        3.34823e+00        0.00000e+00 
 130.90        6.44280e+00        3.35304e+00        0.00000e+00 
 131.60        6.43956e+00        3.35759e+00        0.00000e+00 
 132.30        6.43649e+00        3.36188e+00        0.00000e+00 
 133.00        6.43357e+00        3.36592e+00        0.00000e+00 
 133.70        6.43080e+00        3.36970e+00        0.00000e+00 
 134.40        6.42819e+00        3.37323e+00        0.00000e+00 
 135.10        6.42574e+00        3.37649e+00        0.00000e+00 
 135.80        6.42344e+00        3.37950e+00        0.00000e+00 
 136.50        6.42129e+00        3.38224e+00        0.00000e+00 
 137.20        6.41930e+00        3.38472e+00        0.00000e+00 
 137.90        6.41746e+00        3.38693e+00        0.00000e+00 
 138.60        6.41577e+00        3.38888e+00        0.00000e+00 
 139.30        6.41424e+00        3.39056e+00        0.00000e+00 
 140.00        6.41285e+00        3.39196e+00        0.00000e+00 
 140.70        6.41162e+00        3.39310e+00        0.00000e+00 
 141.40        6.41053e+00        3.39396e+00        0.00000e+00 
 142.10        6.40960e+00        3.39455e+00        0.00000e+00 
 142.80        6.40881e+00        3.39486e+00        0.00000e+00 
 143.50        6.40817e+00        3.39489e+00        0.00000e+00 
 144.20        6.40768e+00        3.39464e+00        0.00000e+00 
 144.90        6.40733e+00        3.39411e+00        0.00000e+00 
 145.60        6.40713e+00        3.39328e+00        0.00000e+00 
 146.30        6.40707e+00        3.39218e+00        0.00000e+00 
 147.00        6.40715e+00        3.39078e+00        0.00000e+00 
 147.70        6.40738e+00        3.38908e+00        0.00000e+00 
 148.40        6.40775e+00        3.38710e+00        0.00000e+00 
 149.10        6.40825e+00        3.38481e+00        0.00000e+00 
 149.80        6.40890e+00        3.38222e+00        0.00000e+00 
 150.50        6.40968e+00        3.37933e+00        0.00000e+00 
 151.20        6.41060e+00        3.37613e+00        0.00000e+00 
 151.90        6.41166e+00        3.37263e+00        0.00000e+00 
 152.60        6.41285e+00        3.36881e+00        0.00000e+00 
 153.30        6.41417e+00        3.36467e+00        0.00000e+00 
 154.00        6.41563e+00        3.36022e+00        0.00000e+00 
 154.70        6.41721e+00        3.35544e+00        0.00000e+00 
 155.40        6.41893e+00        3.35033e+00        0.00000e+00 
 156.10        6.42077e+00        3.34489e+00        0.00000e+00 
 156.80        6.42274e+00        3.33912e+00        0.00000e+00 
 157.50        6.42483e+00        3.33301e+00        0.00000e+00 
 158.20        6.42705e+00        3.32656e+00        0.00000e+00 
 158.90        6.42938e+00        3.31977e+00        0.00000e+00 
 159.60        6.43184e+00        3.31264e+00        0.00000e+00 
 160.30        6.43441e+00        3.30515e+00        0.00000e+00 
 161.00        6.43709e+00        3.29732e+00        0.00000e+00 
 161.70        6.43988e+00        3.28913e+00        0.00000e+00 
 162.40        6.44279e+00        3.28058e+00        0.00000e+00 
 163.10        6.44580e+00        3.27167e+00        0.00000e+00 
 163.80        6.44891e+00        3.26240e+00        0.00000e+00 
 164.50        6.45212e+00        3.25277e+00        0.00000e+00 
 165.20        6.45543e+00        3.24277e+00        0.00000e+00 
 165.90        6.45883e+00        3.23240e+00        0.00000e+00 
 166.60        6.46233e+00        3.22166e+00        0.00000e+00 
 167.30        6.46591e+00        3.21054e+00        0.00000e+00 
 168.00        6.46958e+00        3.19905e+00        0.00000e+00 
 168.70        6.47332e+00        3.18718e+00        0.00000e+00 
 169.40        6.47715e+00        3.17493e+00        0.00000e+00 
 170.10        6.48105e+00        3.16230e+00        0.00000e+00 
 170.80        6.48501e+00        3.14929e+00        0.00000e+00 
 171.50        6.48905e+00        3.13589e+00        0.00000e+00 
 172.20        6.49314e+00        3.12211e+00        0.00000e+00 
 172.90        6.49730e+00        3.10794e+00        0.00000e+00 
 173.60        6.50151e+00        3.09338e+00        0.00000e+00 
 174.30        6.50576e+00        3.07843e+00        0.00000e+00 
 175.00        6.51006e+00        3.06309e+00        0.00000e+00 
 175.70        6.51441e+00        3.04736e+00        0.00000e+00 
 176.40        6.51879e+00        3.03124e+00        0.00000e+00 
 177.10        6.52320e+00        3.01473e+00        0.00000e+00 
 177.80        6.52763e+00        2.99783e+00        0.00000e+00 
 178.50        6.53209e+00        2.98053e+00        0.00000e+00 
 179.20        6.53657e+00        2.96284e+00        0.00000e+00 
 179.90        6.54106e+00        2.94476e+00        0.00000e+00 
 180.60        6.54556e+00        2.92628e+00        0.00000e+00 
 181.30        6.55006e+00        2.90742e+00        0.00000e+00 
 182.00        6.55456e+00        2.88816e+00        0.00000e+00 
 182.70        6.55905e+00        2.86851e+00        0.00000e+00 
 183.40        6.56353e+00        2.84848e+00        0.00000e+00 
 184.10        6.56799e+00        2.82805e+00        0.00000e+00 
 184.80        6.57243e+00        2.80724e+00        0.00000e+00 
 185.50        6.57684e+00        2.78604e+00        0.00000e+00 
 186.20        6.58122e+00        2.76445e+00        0.00000e+00 
 186.90        6.58555e+00        2.74249e+00        0.00000e+00 
 187.60        6.58985e+00        2.72014e+00        0.00000e+00 
 188.30        6.59409e+00        2.69741e+00        0.00000e+00 
 189.00        6.59829e+00        2.67431e+00        0.00000e+00 
 189.70        6.60242e+00        2.65083e+00        0.00000e+00 
 190.40        6.60648e+00        2.62698e+00        0.00000e+00 
 191.10        6.61048e+00        2.60276e+00        0.00000e+00 
 191.80        6.61439e+00        2.57817e+00        0.00000e+00 
 192.50        6.61823e+00        2.55322e+00        0.00000e+00 
 193.20        6.62198e+00        2.52790e+00        0.00000e+00 
 193.90        6.62564e+00        2.50223e+00        0.00000e+00 
 194.60        6.62920e+00        2.47621e+00        0.00000e+00 
 195.30        6.63266e+00        2.44983e+00        0.00000e+00 
 196.00        6.63601e+00        2.42310e+00        0.00000e+00 
 196.70        6.63924e+00        2.39603e+00        0.00000e+00 
 197.40        6.64236e+00        2.36863e+00        0.00000e+00 
 198.10        6.64536e+00        2.34088e+00        0.00000e+00 
 198.80        6.64823e+00        2.31280e+00        0.00000e+00 
 199.50        6.65096e+00        2.28440e+00        0.00000e+00 
 200.20        6.65355e+00        2.25567e+00        0.00000e+00 
 200.90        6.65600e+00        2.22663e+00        0.00000e+00 
 201.60        6.65831e+00        2.19727e+00        0.00000e+00 
 202.30        6.66046e+00        2.16760e+00        0.00000e+00 
 203.00        6.66245e+00        2.13763e+00        0.00000e+00 
 203.70        6.66428e+00        2.10736e+00        0.00000e+00 
 204.40        6.66594e+00        2.07680e+00        0.00000e+00 
 205.10        6.66743e+00        2.04595e+00        0.00000e+00 
 205.80        6.66874e+00        2.01481e+00        0.00000e+00 
 206.50        6.66988e+00        1.98340e+00        0.00000e+00 
 207.20        6.67083e+00        1.95171e+00        0.00000e+00 
 207.90        6.67159e+00        1.91976e+00        0.00000e+00 
 208.60        6.67216e+00        1.88755e+00        0.00000e+00 
 209.30        6.67253e+00        1.85508e+00        0.00000e+00 
 210.00        6.67270e+00        1.82237e+00        0.00000e+00 
 210.70        6.67266e+00        1.78941e+00        0.00000e+00 
